Data from HR4C21111__48__10-17-30-335.txt Node

Date: Mon Feb 22 10:17:30 IST 2021
User: Kapil
Spectrometer: HR4C2111
Trigger mode: 4
Integration Time (sec): 2.300000E0
Scans to average: 1
Electric dark correction enabled: true
Nonlinearity correction enabled: false
Boxcar width: 0
XAxis mode: Wavelengths
Number of Pixels in Spectrum: 3648
>>>>>Begin Spectral Data<<<<<
189.472	-445.69
189.745	-445.69
190.017	-445.69
190.289	-469.69
190.561	-301.69
190.834	-21.69
191.106	-120.69
191.378	17.31
191.65	10.31
191.923	-129.69
192.195	-90.69
192.467	136.31
192.739	114.31
193.011	-35.69
193.284	66.31
193.556	157.31
193.828	-10.69
194.1	-92.69
194.372	-117.69
194.644	48.31
194.916	65.31
195.188	-151.69
195.46	-81.69
195.732	56.31
196.004	-20.69
196.276	-115.69
196.548	-72.69
196.82	64.31
197.092	57.31
197.364	-133.69
197.636	-86.69
197.908	27.31
198.18	-44.69
198.452	-107.69
198.724	-56.69
198.996	43.31
199.268	61.31
199.54	-30.69
199.811	-113.69
200.083	86.31
200.355	13.31
200.627	-200.69
200.899	-79.69
201.171	46.31
201.442	-55.69
201.714	-178.69
201.986	-112.69
202.258	45.31
202.529	110.31
202.801	-28.69
203.073	49.31
203.345	179.31
203.616	0.31
203.888	-147.69
204.16	-156.69
204.431	62.31
204.703	-17.69
204.974	-150.69
205.246	-4.69
205.518	184.31
205.789	2.31
206.061	-129.69
206.332	-102.69
206.604	10.31
206.876	84.31
207.147	106.31
207.419	6.31
207.69	128.31
207.962	-32.69
208.233	-186.69
208.505	10.31
208.776	181.31
209.047	80.31
209.319	-131.69
209.59	-100.69
209.862	85.31
210.133	-36.69
210.404	-148.69
210.676	-102.69
210.947	89.31
211.219	59.31
211.49	-130.69
211.761	-49.69
212.033	27.31
212.304	-21.69
212.575	-181.69
212.846	-91.69
213.118	29.31
213.389	-59.69
213.66	-111.69
213.931	-56.69
214.203	13.31
214.474	-35.69
214.745	-121.69
215.016	112.31
215.287	418.31
215.559	64.31
215.83	-116.69
216.101	-71.69
216.372	-0.69
216.643	66.31
216.914	0.31
217.185	-77.69
217.456	148.31
217.727	22.31
217.998	-158.69
218.269	-58.69
218.54	17.31
218.811	-12.69
219.082	-93.69
219.353	-83.69
219.624	-23.69
219.895	-50.69
220.166	-137.69
220.437	-118.69
220.708	86.31
220.979	-5.69
221.25	-145.69
221.521	-104.69
221.792	14.31
222.063	63.31
222.334	12.31
222.604	165.31
222.875	146.31
223.146	81.31
223.417	-177.69
223.688	-33.69
223.958	120.31
224.229	-52.69
224.5	-198.69
224.771	-85.69
225.041	80.31
225.312	54.31
225.583	-106.69
225.854	-74.69
226.124	86.31
226.395	-18.69
226.666	-141.69
226.936	-121.69
227.207	47.31
227.478	-61.69
227.748	-114.69
228.019	36.31
228.289	238.31
228.56	-40.69
228.831	-42.69
229.101	49.31
229.372	62.31
229.642	-32.69
229.913	-170.69
230.183	-133.69
230.454	-13.69
230.724	-17.69
230.995	-116.69
231.265	-70.69
231.536	61.31
231.806	44.31
232.076	-108.69
232.347	-101.69
232.617	38.31
232.888	7.31
233.158	-81.69
233.428	-119.69
233.699	-21.69
233.969	-62.69
234.239	-153.69
234.51	-91.69
234.78	33.31
235.05	-30.69
235.321	-123.69
235.591	-77.69
235.861	57.31
236.131	-55.69
236.402	-195.69
236.672	-96.69
236.942	31.31
237.212	42.31
237.483	-54.69
237.753	7.31
238.023	152.31
238.293	-1.69
238.563	-87.69
238.833	-98.69
239.103	62.31
239.374	-26.69
239.644	-149.69
239.914	-45.69
240.184	128.31
240.454	-4.69
240.724	-165.69
240.994	-64.69
241.264	13.31
241.534	48.31
241.804	-25.69
242.074	-88.69
242.344	-32.69
242.614	-73.69
242.884	-195.69
243.154	-131.69
243.424	31.31
243.694	72.31
243.964	-98.69
244.234	-89.69
244.503	102.31
244.773	-5.69
245.043	-230.69
245.313	-145.69
245.583	113.31
245.853	78.31
246.123	-178.69
246.392	-121.69
246.662	-5.69
246.932	-31.69
247.202	-194.69
247.471	-71.69
247.741	261.31
248.011	115.31
248.281	-148.69
248.55	-99.69
248.82	41.31
249.09	-17.69
249.359	-96.69
249.629	-82.69
249.899	36.31
250.168	48.31
250.438	-31.69
250.708	-106.69
250.977	78.31
251.247	49.31
251.516	-119.69
251.786	-54.69
252.055	116.31
252.325	-4.69
252.595	-107.69
252.864	-66.69
253.134	45.31
253.403	-27.69
253.673	-167.69
253.942	-110.69
254.212	25.31
254.481	-15.69
254.75	-155.69
255.02	-104.69
255.289	70.31
255.559	-23.69
255.828	-138.69
256.097	-40.69
256.367	20.31
256.636	-86.69
256.906	-152.69
257.175	-26.69
257.444	231.31
257.714	30.31
257.983	-95.69
258.252	-54.69
258.521	2.31
258.791	39.31
259.06	-103.69
259.329	-61.69
259.598	43.31
259.868	-16.69
260.137	-146.69
260.406	-38.69
260.675	82.31
260.944	15.31
261.214	-151.69
261.483	-73.69
261.752	159.31
262.021	1.31
262.29	-177.69
262.559	-139.69
262.828	-3.69
263.097	-50.69
263.366	-214.69
263.635	-99.69
263.905	118.31
264.174	1.31
264.443	-212.69
264.712	-113.69
264.981	23.31
265.25	-54.69
265.519	-151.69
265.788	-161.69
266.057	22.31
266.325	54.31
266.594	-54.69
266.863	-124.69
267.132	15.31
267.401	-17.69
267.67	-203.69
267.939	-152.69
268.208	31.31
268.477	73.31
268.745	-125.69
269.014	-107.69
269.283	126.31
269.552	24.31
269.821	-120.69
270.089	-21.69
270.358	-22.69
270.627	-45.69
270.896	-149.69
271.164	-170.69
271.433	3.31
271.702	80.31
271.971	-155.69
272.239	-152.69
272.508	13.31
272.777	-34.69
273.045	-27.69
273.314	-48.69
273.583	97.31
273.851	-12.69
274.12	-160.69
274.388	-146.69
274.657	-26.69
274.926	-15.69
275.194	-156.69
275.463	-81.69
275.731	2.31
276	149.31
276.268	339.31
276.537	-100.69
276.805	14.31
277.074	30.31
277.342	-177.69
277.611	-109.69
277.879	107.31
278.148	27.31
278.416	-149.69
278.684	-135.69
278.953	-31.69
279.221	-51.69
279.49	-194.69
279.758	-102.69
280.026	-18.69
280.295	-1.69
280.563	-122.69
280.831	714.31
281.1	1824.31
281.368	168.31
281.636	-101.69
281.904	-115.69
282.173	-17.69
282.441	-62.69
282.709	-97.69
282.977	17.31
283.246	38.31
283.514	-48.69
283.782	-73.69
284.05	27.31
284.318	62.31
284.587	-34.69
284.855	-133.69
285.123	-70.69
285.391	58.31
285.659	40.31
285.927	-163.69
286.195	-82.69
286.463	48.31
286.732	-17.69
287	-134.69
287.268	-67.69
287.536	33.31
287.804	-38.69
288.072	-145.69
288.34	-94.69
288.608	52.31
288.876	-54.69
289.144	-139.69
289.412	-28.69
289.68	47.31
289.948	-47.69
290.215	-122.69
290.483	-110.69
290.751	88.31
291.019	96.31
291.287	-167.69
291.555	-138.69
291.823	15.31
292.091	-28.69
292.358	-82.69
292.626	-24.69
292.894	82.31
293.162	55.31
293.43	-121.69
293.697	-85.69
293.965	34.31
294.233	-42.69
294.501	-169.69
294.768	-85.69
295.036	50.31
295.304	15.31
295.572	-143.69
295.839	-109.69
296.107	95.31
296.375	-0.69
296.642	-142.69
296.91	-125.69
297.178	44.31
297.445	151.31
297.713	70.31
297.98	-82.69
298.248	-47.69
298.516	-56.69
298.783	-136.69
299.051	-142.69
299.318	-2.69
299.586	-55.69
299.853	-97.69
300.121	-82.69
300.388	27.31
300.656	-16.69
300.923	-165.69
301.191	-53.69
301.458	49.31
301.726	-13.69
301.993	-147.69
302.26	-100.69
302.528	35.31
302.795	-17.69
303.063	-88.69
303.33	-73.69
303.597	6.31
303.865	4.31
304.132	-132.69
304.399	-132.69
304.667	-37.69
304.934	-6.69
305.201	-124.69
305.469	-30.69
305.736	50.31
306.003	34.31
306.27	-56.69
306.538	-107.69
306.805	-9.69
307.072	-53.69
307.339	-98.69
307.606	-52.69
307.874	146.31
308.141	61.31
308.408	-132.69
308.675	-125.69
308.942	-70.69
309.209	-82.69
309.477	-141.69
309.744	-107.69
310.011	23.31
310.278	34.31
310.545	-48.69
310.812	-75.69
311.079	111.31
311.346	191.31
311.613	46.31
311.88	-41.69
312.147	-72.69
312.414	-57.69
312.681	-127.69
312.948	-41.69
313.215	115.31
313.482	77.31
313.749	-108.69
314.016	-208.69
314.283	-63.69
314.55	42.31
314.817	-110.69
315.083	-122.69
315.35	-85.69
315.617	-153.69
315.884	-163.69
316.151	44.31
316.418	147.31
316.684	-40.69
316.951	-214.69
317.218	-132.69
317.485	-10.69
317.752	-65.69
318.018	-115.69
318.285	-29.69
318.552	6.31
318.819	-76.69
319.085	-136.69
319.352	-56.69
319.619	34.31
319.885	-26.69
320.152	-209.69
320.419	-127.69
320.685	14.31
320.952	-45.69
321.219	-81.69
321.485	64.31
321.752	6.31
322.019	-63.69
322.285	26.31
322.552	-10.69
322.818	121.31
323.085	-26.69
323.351	-143.69
323.618	-27.69
323.884	36.31
324.151	-80.69
324.417	-48.69
324.684	-96.69
324.95	-71.69
325.217	-159.69
325.483	-196.69
325.75	-49.69
326.016	-13.69
326.283	-47.69
326.549	-209.69
326.815	-93.69
327.082	93.31
327.348	10.31
327.615	-115.69
327.881	-45.69
328.147	110.31
328.414	122.31
328.68	-8.69
328.946	-61.69
329.212	14.31
329.479	-4.69
329.745	-133.69
330.011	-129.69
330.278	-1.69
330.544	-59.69
330.81	-57.69
331.076	-59.69
331.342	-49.69
331.609	-32.69
331.875	-101.69
332.141	-114.69
332.407	15.31
332.673	-17.69
332.94	-32.69
333.206	-53.69
333.472	48.31
333.738	57.31
334.004	-124.69
334.27	-42.69
334.536	-17.69
334.802	-64.69
335.068	-129.69
335.334	-14.69
335.6	5.31
335.866	-48.69
336.132	-195.69
336.398	-104.69
336.664	-28.69
336.93	-55.69
337.196	-95.69
337.462	-26.69
337.728	10.31
337.994	-69.69
338.26	-114.69
338.526	-54.69
338.792	-55.69
339.058	-56.69
339.324	-159.69
339.59	-37.69
339.856	38.31
340.121	-74.69
340.387	-154.69
340.653	64.31
340.919	129.31
341.185	44.31
341.45	-82.69
341.716	5.31
341.982	93.31
342.248	-72.69
342.514	-98.69
342.779	-5.69
343.045	8.31
343.311	-40.69
343.576	-107.69
343.842	-63.69
344.108	109.31
344.374	-3.69
344.639	-131.69
344.905	-100.69
345.171	46.31
345.436	-66.69
345.702	-112.69
345.967	40.31
346.233	74.31
346.499	13.31
346.764	-187.69
347.03	-90.69
347.295	-62.69
347.561	-16.69
347.826	-63.69
348.092	-153.69
348.357	-42.69
348.623	-41.69
348.888	-144.69
349.154	-116.69
349.419	18.31
349.685	-17.69
349.95	-100.69
350.216	-75.69
350.481	24.31
350.747	-69.69
351.012	-186.69
351.277	-108.69
351.543	10.31
351.808	-59.69
352.074	-216.69
352.339	-150.69
352.604	31.31
352.87	-13.69
353.135	-141.69
353.4	-99.69
353.666	-43.69
353.931	-66.69
354.196	-175.69
354.461	-159.69
354.727	0.31
354.992	-26.69
355.257	-183.69
355.522	-70.69
355.788	-33.69
356.053	23.31
356.318	-121.69
356.583	-147.69
356.848	64.31
357.113	170.31
357.379	-104.69
357.644	-132.69
357.909	58.31
358.174	81.31
358.439	-180.69
358.704	-111.69
358.969	10.31
359.234	14.31
359.499	-159.69
359.765	-79.69
360.03	31.31
360.295	30.31
360.56	-151.69
360.825	-89.69
361.09	106.31
361.355	-83.69
361.62	-114.69
361.885	-79.69
362.15	-99.69
362.415	-82.69
362.679	-161.69
362.944	6.31
363.209	27.31
363.474	43.31
363.739	-27.69
364.004	-133.69
364.269	-60.69
364.534	-15.69
364.799	-81.69
365.063	-68.69
365.328	22.31
365.593	17.31
365.858	-117.69
366.123	-107.69
366.387	19.31
366.652	-49.69
366.917	-170.69
367.182	-123.69
367.447	25.31
367.711	-32.69
367.976	-95.69
368.241	-30.69
368.505	30.31
368.77	-68.69
369.035	-91.69
369.299	-31.69
369.564	-15.69
369.829	-80.69
370.093	-112.69
370.358	-120.69
370.623	-24.69
370.887	-17.69
371.152	-180.69
371.416	-104.69
371.681	-47.69
371.946	-145.69
372.21	-179.69
372.475	-40.69
372.739	-8.69
373.004	-76.69
373.268	-120.69
373.533	-43.69
373.797	-14.69
374.062	-18.69
374.326	-177.69
374.591	-88.69
374.855	-8.69
375.12	-85.69
375.384	-234.69
375.648	-149.69
375.913	-15.69
376.177	8.31
376.442	-127.69
376.706	-129.69
376.97	7.31
377.235	-45.69
377.499	-73.69
377.763	-88.69
378.028	-96.69
378.292	-53.69
378.556	-135.69
378.821	-208.69
379.085	-129.69
379.349	-182.69
379.614	-244.69
379.878	-122.69
380.142	54.31
380.406	-38.69
380.671	-59.69
380.935	63.31
381.199	157.31
381.463	33.31
381.727	-26.69
381.991	-74.69
382.256	-21.69
382.52	-67.69
382.784	-49.69
383.048	68.31
383.312	-0.69
383.576	-49.69
383.84	-163.69
384.104	-113.69
384.369	-13.69
384.633	-141.69
384.897	-230.69
385.161	-93.69
385.425	16.31
385.689	-69.69
385.953	-116.69
386.217	-156.69
386.481	-52.69
386.745	-36.69
387.009	-94.69
387.273	-130.69
387.537	-93.69
387.801	-66.69
388.064	-134.69
388.328	-41.69
388.592	13.31
388.856	-62.69
389.12	-145.69
389.384	-63.69
389.648	-33.69
389.912	34.31
390.176	21.31
390.439	98.31
390.703	-66.69
390.967	-100.69
391.231	-183.69
391.495	-143.69
391.758	-69.69
392.022	-60.69
392.286	-184.69
392.55	-157.69
392.813	-40.69
393.077	6.31
393.341	-72.69
393.605	-7.69
393.868	-54.69
394.132	-65.69
394.396	-99.69
394.659	27.31
394.923	-37.69
395.187	-98.69
395.45	-122.69
395.714	-73.69
395.978	-35.69
396.241	-31.69
396.505	-109.69
396.768	-64.69
397.032	-3.69
397.295	0.31
397.559	-101.69
397.823	-132.69
398.086	4.31
398.35	-56.69
398.613	-163.69
398.877	-37.69
399.14	76.31
399.404	77.31
399.667	-14.69
399.931	-108.69
400.194	-12.69
400.457	-50.69
400.721	-85.69
400.984	7.31
401.248	-42.69
401.511	-69.69
401.775	-183.69
402.038	-121.69
402.301	67.31
402.565	-7.69
402.828	-207.69
403.091	-121.69
403.355	-25.69
403.618	-22.69
403.881	-20.69
404.145	-72.69
404.408	6.31
404.671	-34.69
404.934	-39.69
405.198	-10.69
405.461	-3.69
405.724	21.31
405.987	-3.69
406.251	2.31
406.514	72.31
406.777	-54.69
407.04	-131.69
407.303	-126.69
407.567	13.31
407.83	81.31
408.093	-131.69
408.356	-39.69
408.619	17.31
408.882	69.31
409.145	-33.69
409.408	-65.69
409.672	24.31
409.935	-31.69
410.198	-148.69
410.461	-71.69
410.724	65.31
410.987	-13.69
411.25	-152.69
411.513	-39.69
411.776	20.31
412.039	-96.69
412.302	-154.69
412.565	-125.69
412.828	-65.69
413.091	-72.69
413.354	-149.69
413.617	-128.69
413.879	-62.69
414.142	-38.69
414.405	-158.69
414.668	-80.69
414.931	32.31
415.194	-1.69
415.457	-128.69
415.72	-71.69
415.983	-22.69
416.245	-23.69
416.508	-117.69
416.771	-146.69
417.034	-3.69
417.297	-0.69
417.559	-57.69
417.822	-83.69
418.085	5.31
418.348	-7.69
418.61	-170.69
418.873	-131.69
419.136	-91.69
419.399	-103.69
419.661	-83.69
419.924	-108.69
420.187	-5.69
420.449	-29.69
420.712	-103.69
420.975	-152.69
421.237	-44.69
421.5	-52.69
421.762	-13.69
422.025	45.31
422.288	70.31
422.55	-113.69
422.813	-196.69
423.075	-102.69
423.338	-42.69
423.601	-12.69
423.863	-63.69
424.126	-58.69
424.388	41.31
424.651	-23.69
424.913	-79.69
425.176	-87.69
425.438	-59.69
425.701	21.31
425.963	-134.69
426.225	-171.69
426.488	-63.69
426.75	-82.69
427.013	-150.69
427.275	-101.69
427.538	-65.69
427.8	-73.69
428.062	-156.69
428.325	-78.69
428.587	15.31
428.849	-40.69
429.112	-106.69
429.374	-131.69
429.636	-64.69
429.899	20.31
430.161	-114.69
430.423	-71.69
430.686	32.31
430.948	-12.69
431.21	-141.69
431.472	-160.69
431.735	-85.69
431.997	-86.69
432.259	-37.69
432.521	-123.69
432.783	-48.69
433.046	-47.69
433.308	-125.69
433.57	-101.69
433.832	137.31
434.094	-62.69
434.356	-191.69
434.618	-115.69
434.881	-41.69
435.143	-97.69
435.405	-71.69
435.667	-38.69
435.929	-30.69
436.191	-59.69
436.453	-153.69
436.715	-66.69
436.977	-2.69
437.239	-62.69
437.501	-186.69
437.763	-150.69
438.025	-18.69
438.287	-22.69
438.549	-124.69
438.811	-91.69
439.073	-45.69
439.335	-112.69
439.597	-135.69
439.859	-47.69
440.121	73.31
440.383	-128.69
440.645	-136.69
440.907	-73.69
441.168	-31.69
441.43	-80.69
441.692	-167.69
441.954	-131.69
442.216	-70.69
442.478	-86.69
442.74	-185.69
443.001	-71.69
443.263	77.31
443.525	9.31
443.787	-125.69
444.048	-110.69
444.31	-78.69
444.572	-83.69
444.834	-106.69
445.095	-107.69
445.357	23.31
445.619	-22.69
445.881	-228.69
446.142	-155.69
446.404	-96.69
446.666	-82.69
446.927	-93.69
447.189	45.31
447.451	46.31
447.712	-31.69
447.974	-239.69
448.235	-193.69
448.497	-55.69
448.759	-126.69
449.02	-192.69
449.282	-218.69
449.543	-31.69
449.805	28.31
450.066	-198.69
450.328	-97.69
450.59	82.31
450.851	-35.69
451.113	-72.69
451.374	-144.69
451.636	-7.69
451.897	12.31
452.158	-61.69
452.42	41.31
452.681	69.31
452.943	-121.69
453.204	-204.69
453.466	-191.69
453.727	-90.69
453.988	-49.69
454.25	-177.69
454.511	-197.69
454.773	-84.69
455.034	52.31
455.295	-152.69
455.557	-162.69
455.818	-72.69
456.079	-44.69
456.341	60.31
456.602	25.31
456.863	17.31
457.124	-56.69
457.386	-165.69
457.647	-175.69
457.908	-80.69
458.169	18.31
458.431	-181.69
458.692	-192.69
458.953	-69.69
459.214	-101.69
459.476	-99.69
459.737	-28.69
459.998	6.31
460.259	-93.69
460.52	-187.69
460.781	-125.69
461.043	35.31
461.304	-100.69
461.565	-198.69
461.826	-146.69
462.087	-32.69
462.348	-5.69
462.609	-121.69
462.87	-58.69
463.131	-87.69
463.392	-28.69
463.653	-109.69
463.914	-65.69
464.175	-30.69
464.436	-87.69
464.697	-154.69
464.958	-132.69
465.219	-28.69
465.48	-48.69
465.741	-82.69
466.002	-123.69
466.263	-67.69
466.524	-56.69
466.785	-148.69
467.046	-113.69
467.307	-20.69
467.568	-114.69
467.829	-124.69
468.089	-78.69
468.35	-33.69
468.611	-98.69
468.872	-178.69
469.133	-47.69
469.394	13.31
469.655	57.31
469.915	-113.69
470.176	-189.69
470.437	-149.69
470.698	-60.69
470.958	-139.69
471.219	-194.69
471.48	-93.69
471.741	-98.69
472.001	-174.69
472.262	-125.69
472.523	0.31
472.784	29.31
473.044	-124.69
473.305	-82.69
473.566	33.31
473.826	-11.69
474.087	-131.69
474.348	-118.69
474.608	-50.69
474.869	-8.69
475.129	-132.69
475.39	-163.69
475.651	-64.69
475.911	-34.69
476.172	-172.69
476.432	-77.69
476.693	57.31
476.953	-30.69
477.214	-35.69
477.475	-20.69
477.735	-20.69
477.996	-15.69
478.256	-202.69
478.517	-164.69
478.777	-61.69
479.038	-8.69
479.298	-21.69
479.558	-104.69
479.819	59.31
480.079	50.31
480.34	-56.69
480.6	-130.69
480.861	-23.69
481.121	-49.69
481.381	-153.69
481.642	-83.69
481.902	-69.69
482.162	-127.69
482.423	-101.69
482.683	-17.69
482.943	-1.69
483.204	-103.69
483.464	-138.69
483.724	-87.69
483.985	-47.69
484.245	-12.69
484.505	-96.69
484.765	-39.69
485.026	33.31
485.286	4.31
485.546	-75.69
485.806	-9.69
486.067	11.31
486.327	-113.69
486.587	-178.69
486.847	-158.69
487.107	-37.69
487.368	-38.69
487.628	-92.69
487.888	-99.69
488.148	4.31
488.408	-89.69
488.668	-70.69
488.928	-35.69
489.188	-28.69
489.449	61.31
489.709	-111.69
489.969	-120.69
490.229	-1.69
490.489	-23.69
490.749	-127.69
491.009	-194.69
491.269	-103.69
491.529	-79.69
491.789	-175.69
492.049	-70.69
492.309	39.31
492.569	-73.69
492.829	-101.69
493.089	-119.69
493.349	45.31
493.609	-37.69
493.869	-141.69
494.129	-82.69
494.389	42.31
494.648	-81.69
494.908	-172.69
495.168	-94.69
495.428	31.31
495.688	-55.69
495.948	-202.69
496.208	-194.69
496.467	-130.69
496.727	-75.69
496.987	-84.69
497.247	-91.69
497.507	-10.69
497.767	10.31
498.026	-181.69
498.286	-55.69
498.546	133.31
498.806	-5.69
499.065	21.31
499.325	-44.69
499.585	-55.69
499.845	-53.69
500.104	-61.69
500.364	58.31
500.624	9.31
500.883	-73.69
501.143	-33.69
501.403	14.31
501.662	83.31
501.922	-15.69
502.182	-141.69
502.441	-151.69
502.701	-83.69
502.96	21.31
503.22	-59.69
503.48	-103.69
503.739	-18.69
503.999	-54.69
504.258	-138.69
504.518	-71.69
504.777	25.31
505.037	-43.69
505.296	-117.69
505.556	-130.69
505.815	20.31
506.075	94.31
506.334	-8.69
506.594	-169.69
506.853	-107.69
507.113	-104.69
507.372	-231.69
507.632	-170.69
507.891	-66.69
508.151	-12.69
508.41	-168.69
508.669	-120.69
508.929	4.31
509.188	-55.69
509.447	-106.69
509.707	-147.69
509.966	-59.69
510.226	-40.69
510.485	-85.69
510.744	-79.69
511.004	0.31
511.263	-77.69
511.522	-157.69
511.781	-123.69
512.041	8.31
512.3	-61.69
512.559	-34.69
512.818	-5.69
513.078	0.31
513.337	-25.69
513.596	-98.69
513.855	-117.69
514.115	12.31
514.374	-29.69
514.633	-158.69
514.892	-191.69
515.151	-46.69
515.41	14.31
515.67	-84.69
515.929	-130.69
516.188	-31.69
516.447	-59.69
516.706	-131.69
516.965	-121.69
517.224	-73.69
517.483	-65.69
517.743	-113.69
518.002	-82.69
518.261	8.31
518.52	-51.69
518.779	-156.69
519.038	-131.69
519.297	-88.69
519.556	-83.69
519.815	-165.69
520.074	-176.69
520.333	-71.69
520.592	-85.69
520.851	-167.69
521.11	-59.69
521.369	95.31
521.628	-74.69
521.887	-160.69
522.145	-101.69
522.404	-47.69
522.663	-51.69
522.922	-198.69
523.181	-185.69
523.44	-44.69
523.699	-7.69
523.958	-182.69
524.217	-153.69
524.475	-118.69
524.734	-153.69
524.993	-177.69
525.252	-112.69
525.511	-39.69
525.769	-83.69
526.028	-158.69
526.287	-100.69
526.546	-49.69
526.805	-65.69
527.063	-147.69
527.322	-171.69
527.581	-83.69
527.839	-76.69
528.098	-78.69
528.357	-55.69
528.616	-58.69
528.874	-87.69
529.133	-115.69
529.392	-87.69
529.65	-35.69
529.909	-54.69
530.168	-162.69
530.426	-128.69
530.685	17.31
530.943	-33.69
531.202	-157.69
531.461	-145.69
531.719	0.31
531.978	-61.69
532.236	-149.69
532.495	-69.69
532.753	-13.69
533.012	-102.69
533.271	-172.69
533.529	-167.69
533.788	-71.69
534.046	-167.69
534.305	-196.69
534.563	21.31
534.822	90.31
535.08	-32.69
535.338	-126.69
535.597	-90.69
535.855	-7.69
536.114	-65.69
536.372	-155.69
536.631	-89.69
536.889	-0.69
537.147	-54.69
537.406	-222.69
537.664	-105.69
537.923	-56.69
538.181	-52.69
538.439	-176.69
538.698	-47.69
538.956	-47.69
539.214	-78.69
539.473	-121.69
539.731	-60.69
539.989	0.31
540.248	-69.69
540.506	-128.69
540.764	-131.69
541.022	-10.69
541.281	8.31
541.539	-115.69
541.797	-168.69
542.055	-43.69
542.314	31.31
542.572	-6.69
542.83	-118.69
543.088	-26.69
543.346	-87.69
543.604	-180.69
543.863	-82.69
544.121	47.31
544.379	-37.69
544.637	-159.69
544.895	-25.69
545.153	88.31
545.411	-75.69
545.67	-244.69
545.928	-191.69
546.186	-44.69
546.444	14.31
546.702	-96.69
546.96	-50.69
547.218	2.31
547.476	-84.69
547.734	-159.69
547.992	-89.69
548.25	8.31
548.508	-93.69
548.766	-124.69
549.024	-112.69
549.282	-96.69
549.54	-71.69
549.798	-78.69
550.056	-103.69
550.314	-2.69
550.572	-54.69
550.83	-202.69
551.088	-102.69
551.346	27.31
551.603	14.31
551.861	-155.69
552.119	-55.69
552.377	42.31
552.635	-63.69
552.893	-191.69
553.151	-182.69
553.409	-35.69
553.666	-32.69
553.924	-138.69
554.182	-155.69
554.44	-5.69
554.698	45.31
554.955	-100.69
555.213	-99.69
555.471	-12.69
555.729	-67.69
555.986	-224.69
556.244	-113.69
556.502	81.31
556.76	-53.69
557.017	-123.69
557.275	-64.69
557.533	59.31
557.79	21.31
558.048	-175.69
558.306	-86.69
558.563	2.31
558.821	-111.69
559.079	-146.69
559.336	-128.69
559.594	-50.69
559.852	-135.69
560.109	-186.69
560.367	-71.69
560.624	-24.69
560.882	-86.69
561.14	-100.69
561.397	11.31
561.655	-81.69
561.912	-42.69
562.17	-149.69
562.427	-99.69
562.685	-57.69
562.942	-46.69
563.2	-163.69
563.457	-88.69
563.715	-25.69
563.972	2.31
564.23	-167.69
564.487	-185.69
564.745	-58.69
565.002	-5.69
565.26	-128.69
565.517	-125.69
565.774	-48.69
566.032	-43.69
566.289	-139.69
566.547	-105.69
566.804	23.31
567.061	-26.69
567.319	-159.69
567.576	-57.69
567.833	82.31
568.091	120.31
568.348	-77.69
568.605	-50.69
568.863	1.31
569.12	-26.69
569.377	-133.69
569.635	-122.69
569.892	-76.69
570.149	-94.69
570.406	-207.69
570.664	-145.69
570.921	-9.69
571.178	-117.69
571.435	-91.69
571.693	-81.69
571.95	0.31
572.207	-80.69
572.464	-108.69
572.721	-33.69
572.979	68.31
573.236	-10.69
573.493	-123.69
573.75	-96.69
574.007	18.31
574.264	-59.69
574.521	-122.69
574.779	-111.69
575.036	-39.69
575.293	-78.69
575.55	-131.69
575.807	-115.69
576.064	-18.69
576.321	-59.69
576.578	-205.69
576.835	-145.69
577.092	65.31
577.349	2.31
577.606	-217.69
577.863	-144.69
578.12	0.31
578.377	-5.69
578.634	-233.69
578.891	-154.69
579.148	-43.69
579.405	-114.69
579.662	-196.69
579.919	-91.69
580.176	-65.69
580.433	-57.69
580.69	-98.69
580.947	-91.69
581.204	-19.69
581.461	-59.69
581.717	-150.69
581.974	12.31
582.231	43.31
582.488	-62.69
582.745	-143.69
583.002	-117.69
583.259	12.31
583.515	-30.69
583.772	-197.69
584.029	-151.69
584.286	25.31
584.543	-140.69
584.799	-166.69
585.056	-79.69
585.313	0.31
585.57	43.31
585.826	-110.69
586.083	-33.69
586.34	140.31
586.597	-54.69
586.853	-215.69
587.11	-184.69
587.367	28.31
587.623	80.31
587.88	-28.69
588.137	-103.69
588.393	-0.69
588.65	-85.69
588.907	-176.69
589.163	-102.69
589.42	-51.69
589.677	-30.69
589.933	-143.69
590.19	-51.69
590.446	69.31
590.703	37.31
590.96	-189.69
591.216	-189.69
591.473	-73.69
591.729	-78.69
591.986	-70.69
592.242	-34.69
592.499	140.31
592.755	-1.69
593.012	-195.69
593.268	-101.69
593.525	-45.69
593.781	-31.69
594.038	-121.69
594.294	-90.69
594.551	-57.69
594.807	-129.69
595.064	-146.69
595.32	-152.69
595.576	-41.69
595.833	13.31
596.089	-105.69
596.346	-22.69
596.602	19.31
596.858	78.31
597.115	-88.69
597.371	-22.69
597.628	-17.69
597.884	-81.69
598.14	-154.69
598.397	-19.69
598.653	57.31
598.909	-50.69
599.166	-164.69
599.422	-98.69
599.678	0.31
599.934	-31.69
600.191	-160.69
600.447	-118.69
600.703	-62.69
600.959	-103.69
601.216	-233.69
601.472	-186.69
601.728	-62.69
601.984	-87.69
602.241	-190.69
602.497	-107.69
602.753	27.31
603.009	-70.69
603.265	-155.69
603.521	-16.69
603.778	76.31
604.034	-121.69
604.29	-207.69
604.546	-134.69
604.802	-31.69
605.058	-88.69
605.314	-196.69
605.571	-141.69
605.827	-90.69
606.083	-82.69
606.339	-194.69
606.595	-68.69
606.851	38.31
607.107	46.31
607.363	-166.69
607.619	-133.69
607.875	73.31
608.131	12.31
608.387	-230.69
608.643	-138.69
608.899	-55.69
609.155	-60.69
609.411	-85.69
609.667	-62.69
609.923	-43.69
610.179	-86.69
610.435	-268.69
610.691	-182.69
610.947	-15.69
611.203	-103.69
611.459	-147.69
611.714	-41.69
611.97	76.31
612.226	12.31
612.482	-162.69
612.738	-70.69
612.994	132.31
613.25	-23.69
613.505	-167.69
613.761	-124.69
614.017	-33.69
614.273	-46.69
614.529	-108.69
614.785	-174.69
615.04	-56.69
615.296	-32.69
615.552	-115.69
615.808	-77.69
616.063	8.31
616.319	-29.69
616.575	-149.69
616.831	-102.69
617.086	116.31
617.342	68.31
617.598	-56.69
617.854	-10.69
618.109	57.31
618.365	-110.69
618.621	-182.69
618.876	-63.69
619.132	22.31
619.388	-3.69
619.643	-158.69
619.899	-61.69
620.155	23.31
620.41	0.31
620.666	-115.69
620.921	-59.69
621.177	62.31
621.433	65.31
621.688	-74.69
621.944	-151.69
622.199	-49.69
622.455	-40.69
622.71	-157.69
622.966	-127.69
623.221	-96.69
623.477	-80.69
623.732	-73.69
623.988	-150.69
624.243	-15.69
624.499	-12.69
624.754	-175.69
625.01	-151.69
625.265	-51.69
625.521	40.31
625.776	-70.69
626.032	-58.69
626.287	-19.69
626.543	-82.69
626.798	-125.69
627.053	-86.69
627.309	-21.69
627.564	-90.69
627.82	-88.69
628.075	9.31
628.33	-24.69
628.586	-149.69
628.841	-252.69
629.096	-122.69
629.352	-27.69
629.607	-129.69
629.862	-164.69
630.118	-61.69
630.373	-100.69
630.628	-58.69
630.884	-153.69
631.139	-94.69
631.394	34.31
631.649	-26.69
631.905	-169.69
632.16	-77.69
632.415	119.31
632.67	-52.69
632.926	-186.69
633.181	-167.69
633.436	-20.69
633.691	-85.69
633.946	-210.69
634.202	-182.69
634.457	-19.69
634.712	-74.69
634.967	-180.69
635.222	-201.69
635.477	-100.69
635.733	-93.69
635.988	-191.69
636.243	-162.69
636.498	-26.69
636.753	-45.69
637.008	-171.69
637.263	-91.69
637.518	-17.69
637.773	-37.69
638.028	-99.69
638.283	-82.69
638.539	36.31
638.794	-24.69
639.049	-166.69
639.304	-163.69
639.559	-86.69
639.814	-113.69
640.069	-158.69
640.324	-133.69
640.579	-38.69
640.834	-39.69
641.089	-149.69
641.344	-92.69
641.598	112.31
641.853	11.31
642.108	-150.69
642.363	-202.69
642.618	-18.69
642.873	-68.69
643.128	-199.69
643.383	-120.69
643.638	-16.69
643.893	14.31
644.148	-53.69
644.402	-137.69
644.657	-14.69
644.912	-76.69
645.167	-105.69
645.422	-38.69
645.677	-30.69
645.931	19.31
646.186	5.31
646.441	-81.69
646.696	-80.69
646.951	-81.69
647.205	-123.69
647.46	-102.69
647.715	-64.69
647.97	74.31
648.224	192.31
648.479	-22.69
648.734	79.31
648.989	24.31
649.243	-91.69
649.498	-114.69
649.753	-62.69
650.007	-26.69
650.262	-95.69
650.517	-126.69
650.771	-59.69
651.026	-103.69
651.281	-214.69
651.535	-69.69
651.79	-37.69
652.045	-67.69
652.299	-137.69
652.554	-141.69
652.809	-40.69
653.063	103.31
653.318	-0.69
653.572	-99.69
653.827	36.31
654.081	-24.69
654.336	-171.69
654.591	-151.69
654.845	-32.69
655.1	-96.69
655.354	-141.69
655.609	-59.69
655.863	38.31
656.118	1.31
656.372	-127.69
656.627	-122.69
656.881	-3.69
657.136	-66.69
657.39	-162.69
657.645	-46.69
657.899	73.31
658.153	-30.69
658.408	-130.69
658.662	-51.69
658.917	-35.69
659.171	-121.69
659.426	-203.69
659.68	-121.69
659.934	-6.69
660.189	-32.69
660.443	-147.69
660.697	0.31
660.952	76.31
661.206	-61.69
661.46	-215.69
661.715	-134.69
661.969	-16.69
662.223	-59.69
662.478	-141.69
662.732	-91.69
662.986	-49.69
663.241	-50.69
663.495	-183.69
663.749	-119.69
664.003	7.31
664.258	-70.69
664.512	-146.69
664.766	-81.69
665.02	-19.69
665.275	5.31
665.529	-173.69
665.783	-130.69
666.037	-47.69
666.291	-77.69
666.546	-140.69
666.8	-106.69
667.054	-109.69
667.308	-71.69
667.562	-240.69
667.816	-158.69
668.071	-39.69
668.325	-156.69
668.579	-170.69
668.833	-81.69
669.087	50.31
669.341	-44.69
669.595	-182.69
669.849	-125.69
670.103	-63.69
670.357	-67.69
670.612	-109.69
670.866	-129.69
671.12	-55.69
671.374	-84.69
671.628	-94.69
671.882	-129.69
672.136	-45.69
672.39	-49.69
672.644	-209.69
672.898	-65.69
673.152	90.31
673.406	5.31
673.66	-101.69
673.914	-34.69
674.168	33.31
674.422	-51.69
674.675	-155.69
674.929	-91.69
675.183	38.31
675.437	-17.69
675.691	-93.69
675.945	-30.69
676.199	88.31
676.453	-26.69
676.707	-171.69
676.961	-166.69
677.214	-74.69
677.468	-47.69
677.722	-52.69
677.976	-87.69
678.23	-43.69
678.484	-14.69
678.737	-154.69
678.991	-126.69
679.245	-46.69
679.499	-95.69
679.753	-152.69
680.006	-82.69
680.26	29.31
680.514	30.31
680.768	-132.69
681.021	-51.69
681.275	-36.69
681.529	-41.69
681.783	-97.69
682.036	-104.69
682.29	-99.69
682.544	-57.69
682.797	-85.69
683.051	-130.69
683.305	-79.69
683.559	-59.69
683.812	-59.69
684.066	-75.69
684.32	-5.69
684.573	-51.69
684.827	-54.69
685.08	-17.69
685.334	64.31
685.588	-34.69
685.841	-163.69
686.095	-29.69
686.348	-9.69
686.602	5.31
686.856	-45.69
687.109	-98.69
687.363	-69.69
687.616	-101.69
687.87	-223.69
688.123	-171.69
688.377	-53.69
688.63	-15.69
688.884	-18.69
689.137	68.31
689.391	55.31
689.644	-70.69
689.898	-168.69
690.151	-159.69
690.405	-23.69
690.658	-46.69
690.912	-115.69
691.165	-110.69
691.419	-59.69
691.672	-22.69
691.926	-97.69
692.179	-85.69
692.432	-20.69
692.686	-81.69
692.939	-194.69
693.193	-160.69
693.446	24.31
693.699	2.31
693.953	-33.69
694.206	-84.69
694.459	3.31
694.713	41.31
694.966	-121.69
695.219	-113.69
695.473	-28.69
695.726	-125.69
695.979	-190.69
696.233	-92.69
696.486	-9.69
696.739	-32.69
696.992	-159.69
697.246	-34.69
697.499	40.31
697.752	-123.69
698.006	-149.69
698.259	-63.69
698.512	-63.69
698.765	-105.69
699.018	-135.69
699.272	-47.69
699.525	-77.69
699.778	-129.69
700.031	-170.69
700.284	-152.69
700.538	-29.69
700.791	-40.69
701.044	-111.69
701.297	-98.69
701.55	-55.69
701.803	-95.69
702.056	-183.69
702.31	-104.69
702.563	-7.69
702.816	-95.69
703.069	-251.69
703.322	-150.69
703.575	-41.69
703.828	5.31
704.081	-103.69
704.334	-131.69
704.587	-67.69
704.84	-119.69
705.093	-118.69
705.346	12.31
705.599	-19.69
705.853	-28.69
706.106	4.31
706.359	248.31
706.612	-2.69
706.865	13.31
707.118	-151.69
707.37	-66.69
707.623	37.31
707.876	-16.69
708.129	-49.69
708.382	25.31
708.635	107.31
708.888	-60.69
709.141	-176.69
709.394	-64.69
709.647	36.31
709.9	-67.69
710.153	-214.69
710.406	-99.69
710.658	3.31
710.911	-53.69
711.164	-176.69
711.417	-132.69
711.67	-70.69
711.923	-25.69
712.176	-148.69
712.428	-124.69
712.681	-47.69
712.934	-19.69
713.187	-107.69
713.44	-174.69
713.692	-13.69
713.945	-84.69
714.198	-177.69
714.451	-186.69
714.704	-31.69
714.956	10.31
715.209	3.31
715.462	-35.69
715.715	-6.69
715.967	-2.69
716.22	-156.69
716.473	-155.69
716.725	25.31
716.978	-44.69
717.231	-58.69
717.484	-18.69
717.736	-92.69
717.989	-162.69
718.242	-222.69
718.494	-93.69
718.747	33.31
718.999	-58.69
719.252	-48.69
719.505	-46.69
719.757	-24.69
720.01	-52.69
720.263	-108.69
720.515	-97.69
720.768	-2.69
721.02	-16.69
721.273	-138.69
721.525	-178.69
721.778	-66.69
722.031	24.31
722.283	-136.69
722.536	-126.69
722.788	-42.69
723.041	-81.69
723.293	-161.69
723.546	-160.69
723.798	-39.69
724.051	7.31
724.303	-15.69
724.556	-25.69
724.808	98.31
725.061	15.31
725.313	-87.69
725.566	-83.69
725.818	-40.69
726.071	-70.69
726.323	-209.69
726.575	-110.69
726.828	37.31
727.08	31.31
727.333	-139.69
727.585	-125.69
727.837	-58.69
728.09	-48.69
728.342	-192.69
728.595	-72.69
728.847	96.31
729.099	-148.69
729.352	-166.69
729.604	-142.69
729.856	-45.69
730.109	-66.69
730.361	-158.69
730.613	-63.69
730.866	25.31
731.118	-123.69
731.37	-179.69
731.622	-144.69
731.875	-80.69
732.127	-32.69
732.379	-82.69
732.631	-4.69
732.884	-0.69
733.136	-56.69
733.388	-155.69
733.64	-88.69
733.893	41.31
734.145	-30.69
734.397	-158.69
734.649	-158.69
734.901	-60.69
735.154	-126.69
735.406	-204.69
735.658	-137.69
735.91	-24.69
736.162	-79.69
736.414	-187.69
736.667	-82.69
736.919	-54.69
737.171	-138.69
737.423	-156.69
737.675	-101.69
737.927	7.31
738.179	-50.69
738.431	-91.69
738.684	-151.69
738.936	-65.69
739.188	-5.69
739.44	-198.69
739.692	-195.69
739.944	-144.69
740.196	-117.69
740.448	-182.69
740.7	-178.69
740.952	-104.69
741.204	-88.69
741.456	-180.69
741.708	-114.69
741.96	-90.69
742.212	-31.69
742.464	-51.69
742.716	-186.69
742.968	-76.69
743.22	-131.69
743.472	-215.69
743.724	-125.69
743.976	8.31
744.228	11.31
744.48	-227.69
744.732	-187.69
744.983	-11.69
745.235	-41.69
745.487	-119.69
745.739	-90.69
745.991	-114.69
746.243	-35.69
746.495	-193.69
746.747	-177.69
746.999	-65.69
747.25	-68.69
747.502	-122.69
747.754	-17.69
748.006	-85.69
748.258	21.31
748.51	33.31
748.761	-118.69
749.013	-58.69
749.265	15.31
749.517	-5.69
749.768	33.31
750.02	52.31
750.272	-2.69
750.524	-162.69
750.776	-206.69
751.027	-7.69
751.279	29.31
751.531	-189.69
751.782	-106.69
752.034	13.31
752.286	-85.69
752.538	-214.69
752.789	-106.69
753.041	-24.69
753.293	-36.69
753.544	-126.69
753.796	-119.69
754.048	-10.69
754.299	-16.69
754.551	-67.69
754.803	-128.69
755.054	-96.69
755.306	-17.69
755.558	-127.69
755.809	-118.69
756.061	36.31
756.312	-75.69
756.564	-123.69
756.816	-74.69
757.067	-61.69
757.319	-88.69
757.57	-123.69
757.822	-39.69
758.073	36.31
758.325	-20.69
758.577	-163.69
758.828	-153.69
759.08	66.31
759.331	73.31
759.583	-136.69
759.834	-45.69
760.086	-68.69
760.337	-108.69
760.589	-142.69
760.84	-126.69
761.092	-54.69
761.343	-86.69
761.595	-225.69
761.846	-77.69
762.097	-50.69
762.349	-91.69
762.6	-237.69
762.852	-114.69
763.103	41.31
763.355	-91.69
763.606	-182.69
763.857	-29.69
764.109	81.31
764.36	-34.69
764.612	-122.69
764.863	-33.69
765.114	-16.69
765.366	-135.69
765.617	-226.69
765.868	-148.69
766.12	4.31
766.371	5.31
766.622	-193.69
766.874	-117.69
767.125	27.31
767.376	-108.69
767.628	-183.69
767.879	-107.69
768.13	-8.69
768.381	-37.69
768.633	-86.69
768.884	-94.69
769.135	4.31
769.386	-16.69
769.638	-94.69
769.889	-75.69
770.14	-23.69
770.391	-126.69
770.643	-189.69
770.894	-184.69
771.145	-59.69
771.396	-119.69
771.647	-224.69
771.899	-83.69
772.15	-12.69
772.401	-47.69
772.652	-190.69
772.903	-154.69
773.154	175.31
773.406	424.31
773.657	-121.69
773.908	-135.69
774.159	-38.69
774.41	-28.69
774.661	-147.69
774.912	-96.69
775.163	68.31
775.414	71.31
775.666	-170.69
775.917	-165.69
776.168	-105.69
776.419	-102.69
776.67	-185.69
776.921	-171.69
777.172	-84.69
777.423	-54.69
777.674	-33.69
777.925	-46.69
778.176	-116.69
778.427	-103.69
778.678	-179.69
778.929	-151.69
779.18	-66.69
779.431	-132.69
779.682	-118.69
779.933	-76.69
780.184	-56.69
780.435	-93.69
780.686	-126.69
780.937	-67.69
781.188	-23.69
781.439	71.31
781.69	-11.69
781.941	-70.69
782.191	-55.69
782.442	-73.69
782.693	-158.69
782.944	-163.69
783.195	-81.69
783.446	-58.69
783.697	-38.69
783.948	-144.69
784.199	-118.69
784.449	-134.69
784.7	-116.69
784.951	-84.69
785.202	57.31
785.453	11.31
785.704	-185.69
785.954	-188.69
786.205	-91.69
786.456	-146.69
786.707	-240.69
786.958	-206.69
787.208	-96.69
787.459	-132.69
787.71	-105.69
787.961	-132.69
788.211	-91.69
788.462	-82.69
788.713	-122.69
788.964	-138.69
789.214	-52.69
789.465	-45.69
789.716	-93.69
789.967	-78.69
790.217	-91.69
790.468	-128.69
790.719	-205.69
790.969	-154.69
791.22	-96.69
791.471	-42.69
791.721	-19.69
791.972	-115.69
792.223	-37.69
792.473	-101.69
792.724	-130.69
792.975	-153.69
793.225	-67.69
793.476	-101.69
793.726	-171.69
793.977	-75.69
794.228	43.31
794.478	-57.69
794.729	-160.69
794.979	-54.69
795.23	-15.69
795.481	-80.69
795.731	-182.69
795.982	-118.69
796.232	-119.69
796.483	-162.69
796.733	-204.69
796.984	-129.69
797.234	-62.69
797.485	-52.69
797.735	-201.69
797.986	-171.69
798.236	-37.69
798.487	-97.69
798.737	-100.69
798.988	-27.69
799.238	20.31
799.489	-89.69
799.739	-170.69
799.99	-83.69
800.24	-3.69
800.491	31.31
800.741	-104.69
800.991	-153.69
801.242	-98.69
801.492	-78.69
801.743	-136.69
801.993	-16.69
802.244	71.31
802.494	-67.69
802.744	-103.69
802.995	-80.69
803.245	-59.69
803.495	-85.69
803.746	-137.69
803.996	-58.69
804.246	-61.69
804.497	-45.69
804.747	-177.69
804.997	-115.69
805.248	-102.69
805.498	-131.69
805.748	-112.69
805.999	-211.69
806.249	-128.69
806.499	-126.69
806.75	-214.69
807	-183.69
807.25	-66.69
807.5	-116.69
807.751	-117.69
808.001	-63.69
808.251	-56.69
808.501	36.31
808.752	16.31
809.002	-63.69
809.252	-72.69
809.502	-128.69
809.752	-155.69
810.003	-182.69
810.253	-96.69
810.503	-60.69
810.753	-33.69
811.003	-32.69
811.254	13.31
811.504	-58.69
811.754	-100.69
812.004	-100.69
812.254	127.31
812.504	-35.69
812.754	-122.69
813.005	-47.69
813.255	16.31
813.505	-50.69
813.755	-138.69
814.005	-88.69
814.255	-71.69
814.505	-105.69
814.755	-207.69
815.005	-161.69
815.255	-41.69
815.505	-88.69
815.756	-34.69
816.006	-54.69
816.256	-113.69
816.506	-163.69
816.756	-224.69
817.006	-172.69
817.256	-63.69
817.506	-83.69
817.756	-125.69
818.006	-115.69
818.256	-59.69
818.506	-73.69
818.756	-182.69
819.006	-144.69
819.256	-57.69
819.506	-102.69
819.756	-179.69
820.006	-99.69
820.255	-42.69
820.505	-66.69
820.755	-183.69
821.005	-140.69
821.255	-24.69
821.505	-77.69
821.755	-143.69
822.005	-47.69
822.255	21.31
822.505	-94.69
822.755	-99.69
823.004	-198.69
823.254	-153.69
823.504	-87.69
823.754	-80.69
824.004	-134.69
824.254	-25.69
824.504	-37.69
824.753	-31.69
825.003	-32.69
825.253	14.31
825.503	-93.69
825.753	-143.69
826.002	-61.69
826.252	139.31
826.502	-55.69
826.752	-138.69
827.002	-118.69
827.251	-32.69
827.501	-95.69
827.751	-165.69
828.001	-122.69
828.25	-15.69
828.5	-138.69
828.75	-181.69
829	-98.69
829.249	26.31
829.499	-124.69
829.749	-139.69
829.998	-68.69
830.248	-29.69
830.498	-135.69
830.748	-145.69
830.997	-77.69
831.247	-11.69
831.497	-21.69
831.746	-103.69
831.996	-14.69
832.246	104.31
832.495	100.31
832.745	-149.69
832.994	-133.69
833.244	15.31
833.494	-95.69
833.743	-191.69
833.993	-119.69
834.243	-49.69
834.492	-59.69
834.742	-102.69
834.991	-96.69
835.241	79.31
835.49	-89.69
835.74	-200.69
835.99	-114.69
836.239	-11.69
836.489	-4.69
836.738	-102.69
836.988	-215.69
837.237	-81.69
837.487	33.31
837.736	-84.69
837.986	-128.69
838.235	-62.69
838.485	-101.69
838.734	-144.69
838.984	-54.69
839.233	-64.69
839.483	-159.69
839.732	-181.69
839.982	-92.69
840.231	-25.69
840.481	-21.69
840.73	-147.69
840.979	-85.69
841.229	-70.69
841.478	-74.69
841.728	-202.69
841.977	-222.69
842.227	-147.69
842.476	-182.69
842.725	-217.69
842.975	-145.69
843.224	-32.69
843.474	1.31
843.723	-120.69
843.972	-125.69
844.222	-65.69
844.471	-3.69
844.72	-133.69
844.97	-150.69
845.219	-35.69
845.468	-39.69
845.718	-104.69
845.967	-67.69
846.216	-18.69
846.466	13.31
846.715	-113.69
846.964	-97.69
847.214	-99.69
847.463	-146.69
847.712	-116.69
847.961	-126.69
848.211	-71.69
848.46	-59.69
848.709	-109.69
848.958	-149.69
849.208	-71.69
849.457	-93.69
849.706	-87.69
849.955	-127.69
850.205	-134.69
850.454	18.31
850.703	60.31
850.952	-15.69
851.201	11.31
851.451	-51.69
851.7	-35.69
851.949	-160.69
852.198	-59.69
852.447	-98.69
852.696	-166.69
852.946	-114.69
853.195	-15.69
853.444	-9.69
853.693	-186.69
853.942	-196.69
854.191	-94.69
854.44	-67.69
854.689	-98.69
854.939	-141.69
855.188	-157.69
855.437	-122.69
855.686	-137.69
855.935	-111.69
856.184	-53.69
856.433	1.31
856.682	-66.69
856.931	-71.69
857.18	-41.69
857.429	-121.69
857.678	-163.69
857.927	-109.69
858.176	-86.69
858.425	-130.69
858.674	-208.69
858.924	-106.69
859.173	-88.69
859.422	-59.69
859.671	-197.69
859.92	-136.69
860.169	-78.69
860.417	-29.69
860.666	-94.69
860.915	-135.69
861.164	-96.69
861.413	-139.69
861.662	-199.69
861.911	-167.69
862.16	-29.69
862.409	-62.69
862.658	-212.69
862.907	-157.69
863.156	-49.69
863.405	-62.69
863.654	-169.69
863.903	-217.69
864.151	-111.69
864.4	-83.69
864.649	-129.69
864.898	-74.69
865.147	-22.69
865.396	-7.69
865.645	-146.69
865.894	-99.69
866.142	16.31
866.391	-88.69
866.64	-186.69
866.889	-88.69
867.138	89.31
867.387	-28.69
867.635	-149.69
867.884	-85.69
868.133	17.31
868.382	-56.69
868.631	-174.69
868.879	-163.69
869.128	-39.69
869.377	-69.69
869.626	-138.69
869.874	-127.69
870.123	-30.69
870.372	-62.69
870.621	-195.69
870.869	-149.69
871.118	-35.69
871.367	-57.69
871.616	-175.69
871.864	-61.69
872.113	-24.69
872.362	-56.69
872.61	-120.69
872.859	-67.69
873.108	8.31
873.357	-98.69
873.605	-193.69
873.854	-161.69
874.103	-119.69
874.351	-127.69
874.6	-143.69
874.848	-102.69
875.097	-41.69
875.346	-47.69
875.594	-154.69
875.843	-47.69
876.092	86.31
876.34	-26.69
876.589	-133.69
876.837	-224.69
877.086	-127.69
877.335	-51.69
877.583	-113.69
877.832	-58.69
878.08	61.31
878.329	-58.69
878.578	-125.69
878.826	-103.69
879.075	-24.69
879.323	-22.69
879.572	-103.69
879.82	33.31
880.069	-16.69
880.317	-6.69
880.566	-122.69
880.814	-41.69
881.063	74.31
881.311	-29.69
881.56	-5.69
881.808	-92.69
882.057	-18.69
882.305	-43.69
882.554	-55.69
882.802	-149.69
883.051	-94.69
883.299	-66.69
883.548	-118.69
883.796	-20.69
884.045	-12.69
884.293	-91.69
884.541	-208.69
884.79	-223.69
885.038	-111.69
885.287	-107.69
885.535	-77.69
885.783	-60.69
886.032	-107.69
886.28	-147.69
886.529	-189.69
886.777	-131.69
887.025	34.31
887.274	-79.69
887.522	-150.69
887.77	-119.69
888.019	-106.69
888.267	-121.69
888.516	-199.69
888.764	-154.69
889.012	-60.69
889.261	-74.69
889.509	-164.69
889.757	-145.69
890.005	-94.69
890.254	-155.69
890.502	-123.69
890.75	82.31
890.999	82.31
891.247	-23.69
891.495	-55.69
891.743	-79.69
891.992	63.31
892.24	-39.69
892.488	-154.69
892.737	-150.69
892.985	-56.69
893.233	-58.69
893.481	-112.69
893.729	-120.69
893.978	40.31
894.226	40.31
894.474	-114.69
894.722	-127.69
894.97	-91.69
895.219	-111.69
895.467	-86.69
895.715	-42.69
895.963	-80.69
896.211	-122.69
896.46	-205.69
896.708	-97.69
896.956	-18.69
897.204	56.31
897.452	-37.69
897.7	-111.69
897.948	-23.69
898.197	-70.69
898.445	-123.69
898.693	-114.69
898.941	-35.69
899.189	-48.69
899.437	-108.69
899.685	-19.69
899.933	-53.69
900.181	-49.69
900.43	-146.69
900.678	-128.69
900.926	-51.69
901.174	-87.69
901.422	-130.69
901.67	-101.69
901.918	-27.69
902.166	-77.69
902.414	-210.69
902.662	-149.69
902.91	-39.69
903.158	-67.69
903.406	-121.69
903.654	-95.69
903.902	-77.69
904.15	-98.69
904.398	-198.69
904.646	-101.69
904.894	-9.69
905.142	-8.69
905.39	-57.69
905.638	-128.69
905.886	-105.69
906.134	-99.69
906.382	-98.69
906.63	-146.69
906.878	-58.69
907.126	-57.69
907.374	-130.69
907.622	-127.69
907.869	-13.69
908.117	-35.69
908.365	-105.69
908.613	-128.69
908.861	-121.69
909.109	-152.69
909.357	-165.69
909.605	-93.69
909.853	-16.69
910.1	-87.69
910.348	-253.69
910.596	-203.69
910.844	-27.69
911.092	17.31
911.34	-109.69
911.588	-84.69
911.835	-36.69
912.083	-54.69
912.331	-58.69
912.579	-39.69
912.827	126.31
913.075	-5.69
913.322	-139.69
913.57	-135.69
913.818	9.31
914.066	-55.69
914.313	-150.69
914.561	-56.69
914.809	-18.69
915.057	-87.69
915.305	-106.69
915.552	-107.69
915.8	-1.69
916.048	-98.69
916.296	-162.69
916.543	-45.69
916.791	48.31
917.039	-35.69
917.286	-151.69
917.534	-130.69
917.782	-15.69
918.03	-85.69
918.277	-202.69
918.525	-202.69
918.773	-81.69
919.02	-79.69
919.268	-131.69
919.516	-110.69
919.763	-113.69
920.011	-102.69
920.259	-201.69
920.506	-101.69
920.754	-2.69
921.002	-23.69
921.249	-77.69
921.497	-104.69
921.745	-55.69
921.992	-50.69
922.24	-201.69
922.487	-58.69
922.735	108.31
922.983	20.31
923.23	-80.69
923.478	-122.69
923.725	-39.69
923.973	-27.69
924.221	-69.69
924.468	-32.69
924.716	-38.69
924.963	-70.69
925.211	-138.69
925.458	-49.69
925.706	44.31
925.953	75.31
926.201	-114.69
926.448	-123.69
926.696	-16.69
926.944	-43.69
927.191	-113.69
927.439	-115.69
927.686	-79.69
927.934	-55.69
928.181	-154.69
928.429	-163.69
928.676	-88.69
928.923	-149.69
929.171	-187.69
929.418	-37.69
929.666	27.31
929.913	7.31
930.161	-195.69
930.408	-147.69
930.656	-50.69
930.903	-31.69
931.151	-169.69
931.398	-103.69
931.645	25.31
931.893	-79.69
932.14	-119.69
932.388	-86.69
932.635	45.31
932.882	86.31
933.13	-20.69
933.377	-98.69
933.625	-6.69
933.872	-86.69
934.119	-171.69
934.367	-107.69
934.614	-95.69
934.861	-116.69
935.109	-119.69
935.356	-62.69
935.603	-17.69
935.851	-70.69
936.098	-135.69
936.345	-40.69
936.593	-6.69
936.84	-65.69
937.087	-198.69
937.335	-121.69
937.582	-40.69
937.829	-32.69
938.077	-74.69
938.324	-83.69
938.571	-16.69
938.818	-104.69
939.066	-145.69
939.313	-163.69
939.56	-31.69
939.807	-29.69
940.055	-145.69
940.302	-101.69
940.549	52.31
940.796	-26.69
941.044	-90.69
941.291	-77.69
941.538	81.31
941.785	-47.69
942.033	-120.69
942.28	-40.69
942.527	-4.69
942.774	-11.69
943.021	-161.69
943.269	-136.69
943.516	-21.69
943.763	-14.69
944.01	-82.69
944.257	-3.69
944.504	45.31
944.752	-5.69
944.999	-55.69
945.246	-131.69
945.493	-51.69
945.74	-60.69
945.987	-133.69
946.234	-47.69
946.482	43.31
946.729	-81.69
946.976	-139.69
947.223	-118.69
947.47	33.31
947.717	-3.69
947.964	0.31
948.211	-37.69
948.458	7.31
948.705	-56.69
948.952	-145.69
949.2	-70.69
949.447	64.31
949.694	59.31
949.941	-95.69
950.188	-123.69
950.435	-91.69
950.682	-55.69
950.929	-173.69
951.176	-129.69
951.423	27.31
951.67	8.31
951.917	-30.69
952.164	-29.69
952.411	32.31
952.658	85.31
952.905	-81.69
953.152	-135.69
953.399	-16.69
953.646	-17.69
953.893	-142.69
954.14	-106.69
954.387	-58.69
954.634	-70.69
954.881	-115.69
955.128	-52.69
955.375	-62.69
955.622	-54.69
955.869	-48.69
956.115	-63.69
956.362	0.31
956.609	-22.69
956.856	-112.69
957.103	-97.69
957.35	-3.69
957.597	2.31
957.844	-91.69
958.091	-82.69
958.338	25.31
958.585	-38.69
958.831	-219.69
959.078	-146.69
959.325	11.31
959.572	-93.69
959.819	-167.69
960.066	-191.69
960.313	-59.69
960.559	-74.69
960.806	-203.69
961.053	-163.69
961.3	6.31
961.547	34.31
961.794	-172.69
962.04	-13.69
962.287	16.31
962.534	-113.69
962.781	-129.69
963.028	-63.69
963.274	52.31
963.521	-57.69
963.768	-135.69
964.015	-88.69
964.262	64.31
964.508	-83.69
964.755	-177.69
965.002	-135.69
965.249	-90.69
965.495	-135.69
965.742	-151.69
965.989	-146.69
966.236	-39.69
966.482	-109.69
966.729	-158.69
966.976	-174.69
967.222	-89.69
967.469	-78.69
967.716	-137.69
967.963	-159.69
968.209	-75.69
968.456	-106.69
968.703	-199.69
968.949	-105.69
969.196	68.31
969.443	86.31
969.689	-160.69
969.936	-175.69
970.183	-67.69
970.429	-116.69
970.676	-162.69
970.923	-93.69
971.169	-27.69
971.416	-118.69
971.663	-150.69
971.909	-99.69
972.156	-30.69
972.402	-45.69
972.649	-101.69
972.896	-71.69
973.142	-51.69
973.389	-34.69
973.635	-124.69
973.882	-5.69
974.129	51.31
974.375	-85.69
974.622	-156.69
974.868	-152.69
975.115	-63.69
975.361	-117.69
975.608	-147.69
975.855	-16.69
976.101	13.31
976.348	-69.69
976.594	-145.69
976.841	-80.69
977.087	-57.69
977.334	-17.69
977.58	-140.69
977.827	-156.69
978.073	-10.69
978.32	-42.69
978.566	-183.69
978.813	-108.69
979.059	-61.69
979.306	-97.69
979.552	-169.69
979.799	-87.69
980.045	-89.69
980.292	-79.69
980.538	-149.69
980.785	-157.69
981.031	-122.69
981.278	-151.69
981.524	-209.69
981.771	-54.69
982.017	86.31
982.263	-0.69
982.51	-134.69
982.756	-83.69
983.003	-13.69
983.249	-57.69
983.495	-147.69
983.742	-158.69
983.988	-86.69
984.235	-61.69
984.481	-151.69
984.727	-157.69
984.974	-22.69
985.22	-22.69
985.467	-85.69
985.713	-114.69
985.959	9.31
986.206	-18.69
986.452	-108.69
986.698	-69.69
986.945	-47.69
987.191	-9.69
987.437	-6.69
987.684	-55.69
987.93	112.31
988.176	12.31
988.423	-161.69
988.669	-104.69
988.915	63.31
989.162	-73.69
989.408	-188.69
989.654	-106.69
989.901	-65.69
990.147	-73.69
990.393	-85.69
990.639	-24.69
990.886	9.31
991.132	62.31
991.378	5.31
991.625	112.31
991.871	92.31
992.117	13.31
992.363	-40.69
992.61	-28.69
992.856	85.31
993.102	-72.69
993.348	-144.69
993.594	-105.69
993.841	-56.69
994.087	85.31
994.333	-50.69
994.579	-75.69
994.826	-31.69
995.072	-5.69
995.318	-214.69
995.564	-164.69
995.81	-38.69
996.057	-81.69
996.303	-173.69
996.549	-139.69
996.795	-55.69
997.041	-91.69
997.287	-121.69
997.534	-101.69
997.78	-54.69
998.026	-54.69
998.272	-164.69
998.518	-166.69
998.764	-15.69
999.01	17.31
999.256	-94.69
999.503	-117.69
999.749	-121.69
999.995	-163.69
1000.241	-176.69
1000.487	-88.69
1000.733	-54.69
1000.979	-84.69
1001.225	-106.69
1001.471	-48.69
1001.718	-1.69
1001.964	19.31
1002.21	-134.69
1002.456	-102.69
1002.702	45.31
1002.948	-39.69
1003.194	-121.69
1003.44	-147.69
1003.686	-56.69
1003.932	-120.69
1004.178	-161.69
1004.424	-89.69
1004.67	59.31
1004.916	44.31
1005.162	-79.69
1005.408	-139.69
1005.654	-2.69
1005.9	-151.69
1006.146	-195.69
1006.392	-116.69
1006.638	-39.69
1006.884	-68.69
1007.13	-145.69
1007.376	-171.69
1007.622	0.31
1007.868	17.31
1008.114	-109.69
1008.36	-54.69
1008.606	-26.69
1008.852	-16.69
1009.098	-89.69
1009.344	-26.69
1009.59	-49.69
1009.836	-171.69
1010.082	-234.69
1010.328	-118.69
1010.574	-38.69
1010.82	-136.69
1011.065	-222.69
1011.311	-187.69
1011.557	-72.69
1011.803	-110.69
1012.049	-159.69
1012.295	-119.69
1012.541	-80.69
1012.787	-59.69
1013.033	-200.69
1013.278	-219.69
1013.524	-82.69
1013.77	-5.69
1014.016	-111.69
1014.262	-99.69
1014.508	4.31
1014.754	-149.69
1015	-180.69
1015.245	-16.69
1015.491	16.31
1015.737	-35.69
1015.983	-157.69
1016.229	-181.69
1016.475	-62.69
1016.72	66.31
1016.966	76.31
1017.212	-42.69
1017.458	38.31
1017.704	-48.69
1017.949	-183.69
1018.195	-24.69
1018.441	81.31
1018.687	46.31
1018.933	-105.69
1019.178	-124.69
1019.424	54.31
1019.67	60.31
1019.916	-154.69
1020.161	-98.69
1020.407	-37.69
1020.653	-94.69
1020.899	-164.69
1021.144	-95.69
1021.39	-10.69
1021.636	-109.69
1021.882	-212.69
1022.127	-98.69
1022.373	59.31
1022.619	9.31
1022.865	-90.69
1023.11	-87.69
1023.356	35.31
1023.602	-40.69
1023.847	-106.69
1024.093	-63.69
1024.339	-83.69
1024.584	-97.69
1024.83	-129.69
1025.076	-127.69
1025.321	5.31
1025.567	-20.69
1025.813	-146.69
1026.058	-53.69
1026.304	30.31
1026.55	-65.69
1026.795	-85.69
1027.041	-91.69
1027.287	-16.69
1027.532	1.31
1027.778	-34.69
1028.024	-62.69
1028.269	-41.69
1028.515	-118.69
1028.76	-166.69
1029.006	-95.69
1029.252	17.31
1029.497	-54.69
1029.743	-83.69
1029.989	-138.69
1030.234	4.31
1030.48	79.31
1030.725	-121.69
1030.971	-81.69
1031.216	52.31
1031.462	-47.69
1031.708	-181.69
1031.953	-146.69
1032.199	-48.69
1032.444	-34.69
1032.69	-76.69
1032.935	-91.69
1033.181	36.31
1033.426	-81.69
1033.672	-230.69
1033.918	-187.69
1034.163	-65.69
1034.409	-65.69
1034.654	-120.69
1034.9	-41.69
1035.145	15.31
1035.391	-54.69
1035.636	-154.69
1035.882	-78.69
1036.127	-83.69
1036.373	-121.69
1036.618	-218.69
1036.864	-101.69
1037.109	34.31
1037.355	-68.69
1037.6	-150.69
1037.845	-95.69
1038.091	95.31
1038.336	53.31
1038.582	60.31
1038.827	132.31
1039.073	-22.69
1039.318	-106.69
1039.564	-202.69
1039.809	-130.69
1040.055	63.31
1040.3	47.31
1040.545	-117.69
1040.791	-115.69
1041.036	-48.69
1041.282	-27.69
1041.527	37.31
1041.772	-147.69
1042.018	-91.69
1042.263	-48.69
1042.509	-191.69
1042.754	-136.69
1042.999	-20.69
1043.245	-52.69
1043.49	-221.69
1043.736	-142.69
1043.981	-56.69
1044.226	-49.69
1044.472	-74.69
1044.717	-62.69
1044.962	51.31
1045.208	-33.69
1045.453	-249.69
1045.698	-166.69
1045.944	18.31
1046.189	-29.69
1046.434	-123.69
1046.68	-99.69
1046.925	76.31
1047.17	-88.69
1047.416	-249.69
1047.661	-150.69
1047.906	9.31
1048.152	-10.69
1048.397	-106.69
1048.642	-121.69
1048.887	61.31
1049.133	70.31
1049.378	-107.69
1049.623	-128.69
1049.869	-9.69
1050.114	-77.69
1050.359	-134.69
1050.604	-74.69
1050.85	77.31
1051.095	-55.69
1051.34	-143.69
1051.585	-61.69
1051.831	116.31
1052.076	-38.69
1052.321	-232.69
1052.566	-121.69
1052.812	61.31
1053.057	-25.69
1053.302	-115.69
1053.547	-18.69
1053.792	20.31
1054.038	2.31
1054.283	-195.69
1054.528	-103.69
1054.773	-17.69
1055.018	-20.69
1055.264	-123.69
1055.509	-161.69
1055.754	-31.69
1055.999	-90.69
1056.244	-171.69
1056.49	-96.69
1056.735	-32.69
1056.98	-96.69
1057.225	-187.69
1057.47	0.31
1057.715	-72.69
1057.96	-139.69
1058.206	-170.69
1058.451	-67.69
1058.696	62.31
1058.941	1.31
1059.186	-171.69
1059.431	-142.69
1059.676	57.31
1059.922	-18.69
1060.167	62.31
1060.412	251.31
1060.657	27.31
1060.902	-39.69
1061.147	-206.69
1061.392	-134.69
1061.637	13.31
1061.882	-59.69
1062.127	-200.69
1062.373	-200.69
1062.618	69.31
1062.863	94.31
1063.108	-97.69
1063.353	-146.69
1063.598	-55.69
1063.843	-81.69
1064.088	-161.69
1064.333	-157.69
1064.578	-3.69
1064.823	16.31
1065.068	-223.69
1065.313	-149.69
1065.558	8.31
1065.803	19.31
1066.048	-171.69
1066.293	-165.69
1066.538	46.31
1066.783	-25.69
1067.028	-214.69
1067.273	-191.69
1067.518	6.31
1067.763	-61.69
1068.008	-227.69
1068.253	-158.69
1068.498	39.31
1068.743	-26.69
1068.988	-192.69
1069.233	-177.69
1069.478	31.31
1069.723	79.31
1069.968	-114.69
1070.213	-71.69
1070.458	40.31
1070.703	-57.69
1070.948	-225.69
1071.193	-118.69
1071.438	13.31
1071.683	45.31
1071.928	-74.69
1072.173	-91.69
1072.418	-14.69
1072.663	-59.69
1072.908	-194.69
1073.152	-125.69
1073.397	44.31
1073.642	-55.69
1073.887	-102.69
1074.132	14.31
1074.377	-3.69
1074.622	-43.69
1074.867	-156.69
1075.112	-93.69
1075.357	73.31
1075.601	-61.69
1075.846	-126.69
1076.091	-23.69
1076.336	34.31
1076.581	-95.69
1076.826	-193.69
1077.071	-93.69
1077.315	141.31
1077.56	64.31
1077.805	-151.69
1078.05	-117.69
1078.295	-58.69
1078.54	-66.69
1078.785	-204.69
1079.029	-139.69
1079.274	40.31
1079.519	-95.69
1079.764	-182.69
1080.009	-81.69
1080.253	-4.69
1080.498	-91.69
1080.743	-250.69
1080.988	-110.69
1081.233	98.31
1081.478	56.31
1081.722	-151.69
1081.967	-40.69
1082.212	123.31
1082.457	14.31
1082.701	-122.69
1082.946	-95.69
1083.191	29.31
1083.436	-79.69
1083.681	-222.69
1083.925	-114.69
1084.17	-25.69
1084.415	-5.69
1084.66	-215.69
1084.904	-105.69
1085.149	-11.69
1085.394	-47.69
1085.639	-233.69
1085.883	-125.69
1086.128	134.31
1086.373	144.31
1086.617	-95.69
1086.862	-155.69
1087.107	-32.69
1087.352	-91.69
1087.596	-174.69
1087.841	-48.69
1088.086	2.31
1088.33	-9.69
1088.575	-242.69
1088.82	-115.69
1089.064	50.31
1089.309	-84.69
1089.554	-199.69
1089.798	-161.69
1090.043	17.31
1090.288	-41.69
1090.533	-208.69
1090.777	-146.69
1091.022	2.31
1091.266	29.31
1091.511	-134.69
1091.756	-65.69
1092	100.31
1092.245	76.31
1092.49	-153.69
1092.734	-108.69
1092.979	60.31
1093.224	-36.69
1093.468	-189.69
1093.713	-143.69
1093.957	14.31
1094.202	-53.69
1094.447	-237.69
1094.691	-106.69
1094.936	47.31
1095.181	-6.69
1095.425	-180.69
1095.67	-151.69
1095.914	9.31
1096.159	-3.69
1096.403	-151.69
1096.648	-63.69
1096.893	62.31
1097.137	-85.69
1097.382	-239.69
1097.626	-167.69
1097.871	2.31
1098.115	-49.69
1098.36	-204.69
1098.605	-95.69
1098.849	-32.69
1099.094	-124.69
1099.338	-199.69
1099.583	-92.69
1099.827	114.31
1100.072	26.31
1100.316	-173.69
1100.561	-106.69
1100.805	53.31
1101.05	22.31
1101.294	-181.69
1101.539	-162.69
1101.783	0.31
1102.028	2.31
1102.273	-156.69
1102.517	-95.69
1102.761	50.31
1103.006	-69.69
1103.25	-300.69
1103.495	-193.69
1103.739	49.31
1103.984	98.31
1104.228	-109.69
1104.473	-33.69
1104.717	41.31
1104.962	-3.69
1105.206	-129.69
1105.451	-143.69
1105.695	11.31
1105.94	-26.69
1106.184	-156.69
1106.429	-89.69
1106.673	4.31
1106.917	58.31
1107.162	-159.69
1107.406	-28.69
1107.651	111.31
1107.895	-105.69
1108.14	-199.69
1108.384	-99.69
1108.628	119.31
1108.873	105.31
1109.117	-149.69
1109.362	-119.69
1109.606	-38.69
1109.85	-33.69
1110.095	-153.69
1110.339	-107.69
1110.584	86.31
1110.828	29.31
1111.072	-99.69
1111.317	-128.69
1111.561	-28.69
1111.806	-42.69
1112.05	-172.69
1112.294	-83.69
1112.539	18.31
1112.783	-11.69
1113.027	-121.69
1113.272	-114.69
1113.516	-22.69
1113.76	-54.69
1114.005	-149.69
1114.249	-78.69
1114.493	60.31
1114.738	77.31
1114.982	-50.69
1115.226	-92.69
1115.471	-2.69
1115.715	-21.69
1115.959	-193.69
1116.204	-187.69
1116.448	-7.69
1116.692	-118.69
1116.937	-177.69
1117.181	-11.69
1117.425	-29.69
1117.67	-97.69
1117.914	-149.69
1118.158	-100.69
1118.402	125.31
1118.647	56.31
1118.891	-90.69
1119.135	-37.69
1119.38	98.31
1119.624	1.31
1119.868	-149.69
1120.112	-156.69
1120.357	-68.69
1120.601	-127.69
1120.845	-219.69
1121.089	-154.69
1121.334	39.31
