Data from HR4C21111__46__10-15-05-450.txt Node

Date: Mon Feb 22 10:15:05 IST 2021
User: Kapil
Spectrometer: HR4C2111
Trigger mode: 4
Integration Time (sec): 2.300000E0
Scans to average: 1
Electric dark correction enabled: true
Nonlinearity correction enabled: false
Boxcar width: 0
XAxis mode: Wavelengths
Number of Pixels in Spectrum: 3648
>>>>>Begin Spectral Data<<<<<
189.472	-455.31
189.745	-455.31
190.017	-455.31
190.289	-461.31
190.561	-295.31
190.834	-25.31
191.106	-121.31
191.378	17.69
191.65	-4.31
191.923	-142.31
192.195	-91.31
192.467	128.69
192.739	105.69
193.011	-6.31
193.284	75.69
193.556	163.69
193.828	-8.31
194.1	-92.31
194.372	-112.31
194.644	61.69
194.916	64.69
195.188	-154.31
195.46	-73.31
195.732	53.69
196.004	-19.31
196.276	-106.31
196.548	-64.31
196.82	64.69
197.092	61.69
197.364	-138.31
197.636	-97.31
197.908	19.69
198.18	-53.31
198.452	-87.31
198.724	-52.31
198.996	43.69
199.268	85.69
199.54	-15.31
199.811	-113.31
200.083	95.69
200.355	11.69
200.627	-187.31
200.899	-74.31
201.171	48.69
201.442	-59.31
201.714	-187.31
201.986	-100.31
202.258	50.69
202.529	109.69
202.801	-3.31
203.073	68.69
203.345	182.69
203.616	-12.31
203.888	-150.31
204.16	-160.31
204.431	71.69
204.703	-13.31
204.974	-144.31
205.246	6.69
205.518	180.69
205.789	-3.31
206.061	-131.31
206.332	-99.31
206.604	14.69
206.876	89.69
207.147	131.69
207.419	34.69
207.69	128.69
207.962	-33.31
208.233	-169.31
208.505	16.69
208.776	174.69
209.047	61.69
209.319	-143.31
209.59	-84.31
209.862	95.69
210.133	-39.31
210.404	-150.31
210.676	-115.31
210.947	83.69
211.219	73.69
211.49	-127.31
211.761	-66.31
212.033	32.69
212.304	-42.31
212.575	-201.31
212.846	-97.31
213.118	34.69
213.389	-41.31
213.66	-102.31
213.931	-30.31
214.203	44.69
214.474	-31.31
214.745	-132.31
215.016	135.69
215.287	449.69
215.559	68.69
215.83	-129.31
216.101	-74.31
216.372	9.69
216.643	76.69
216.914	9.69
217.185	-87.31
217.456	154.69
217.727	10.69
217.998	-170.31
218.269	-71.31
218.54	34.69
218.811	-12.31
219.082	-111.31
219.353	-75.31
219.624	-15.31
219.895	-37.31
220.166	-133.31
220.437	-107.31
220.708	92.69
220.979	-21.31
221.25	-153.31
221.521	-117.31
221.792	24.69
222.063	93.69
222.334	22.69
222.604	163.69
222.875	170.69
223.146	92.69
223.417	-165.31
223.688	-39.31
223.958	108.69
224.229	-59.31
224.5	-193.31
224.771	-60.31
225.041	93.69
225.312	53.69
225.583	-112.31
225.854	-52.31
226.124	92.69
226.395	-19.31
226.666	-127.31
226.936	-112.31
227.207	51.69
227.478	-48.31
227.748	-99.31
228.019	29.69
228.289	230.69
228.56	-42.31
228.831	-50.31
229.101	45.69
229.372	54.69
229.642	-20.31
229.913	-161.31
230.183	-143.31
230.454	-4.31
230.724	2.69
230.995	-110.31
231.265	-86.31
231.536	54.69
231.806	51.69
232.076	-111.31
232.347	-123.31
232.617	27.69
232.888	18.69
233.158	-55.31
233.428	-123.31
233.699	-14.31
233.969	-51.31
234.239	-170.31
234.51	-94.31
234.78	30.69
235.05	-23.31
235.321	-117.31
235.591	-72.31
235.861	57.69
236.131	-45.31
236.402	-198.31
236.672	-96.31
236.942	44.69
237.212	35.69
237.483	-63.31
237.753	13.69
238.023	161.69
238.293	-3.31
238.563	-89.31
238.833	-114.31
239.103	58.69
239.374	-23.31
239.644	-123.31
239.914	-22.31
240.184	133.69
240.454	-16.31
240.724	-172.31
240.994	-59.31
241.264	19.69
241.534	59.69
241.804	-19.31
242.074	-85.31
242.344	-41.31
242.614	-54.31
242.884	-171.31
243.154	-126.31
243.424	27.69
243.694	61.69
243.964	-85.31
244.234	-79.31
244.503	112.69
244.773	-1.31
245.043	-218.31
245.313	-133.31
245.583	115.69
245.853	90.69
246.123	-170.31
246.392	-97.31
246.662	-4.31
246.932	-35.31
247.202	-182.31
247.471	-73.31
247.741	262.69
248.011	121.69
248.281	-142.31
248.55	-91.31
248.82	65.69
249.09	-8.31
249.359	-98.31
249.629	-71.31
249.899	39.69
250.168	41.69
250.438	-28.31
250.708	-108.31
250.977	85.69
251.247	72.69
251.516	-107.31
251.786	-54.31
252.055	109.69
252.325	0.69
252.595	-106.31
252.864	-64.31
253.134	38.69
253.403	-40.31
253.673	-183.31
253.942	-110.31
254.212	30.69
254.481	-13.31
254.75	-138.31
255.02	-82.31
255.289	88.69
255.559	-14.31
255.828	-134.31
256.097	-26.31
256.367	32.69
256.636	-79.31
256.906	-146.31
257.175	-3.31
257.444	249.69
257.714	64.69
257.983	-83.31
258.252	-36.31
258.521	11.69
258.791	45.69
259.06	-106.31
259.329	-48.31
259.598	56.69
259.868	1.69
260.137	-112.31
260.406	3.69
260.675	84.69
260.944	22.69
261.214	-133.31
261.483	-38.31
261.752	175.69
262.021	5.69
262.29	-175.31
262.559	-129.31
262.828	21.69
263.097	-43.31
263.366	-215.31
263.635	-102.31
263.905	128.69
264.174	9.69
264.443	-218.31
264.712	-125.31
264.981	26.69
265.25	-50.31
265.519	-136.31
265.788	-153.31
266.057	42.69
266.325	58.69
266.594	-64.31
266.863	-120.31
267.132	27.69
267.401	-8.31
267.67	-206.31
267.939	-157.31
268.208	15.69
268.477	69.69
268.745	-117.31
269.014	-104.31
269.283	132.69
269.552	23.69
269.821	-130.31
270.089	-24.31
270.358	-14.31
270.627	-36.31
270.896	-139.31
271.164	-168.31
271.433	14.69
271.702	87.69
271.971	-147.31
272.239	-152.31
272.508	20.69
272.777	-38.31
273.045	-21.31
273.314	-26.31
273.583	115.69
273.851	-24.31
274.12	-163.31
274.388	-126.31
274.657	1.69
274.926	-0.31
275.194	-165.31
275.463	-72.31
275.731	24.69
276	157.69
276.268	343.69
276.537	-92.31
276.805	17.69
277.074	32.69
277.342	-168.31
277.611	-98.31
277.879	112.69
278.148	25.69
278.416	-150.31
278.684	-142.31
278.953	-44.31
279.221	-46.31
279.49	-195.31
279.758	-107.31
280.026	-5.31
280.295	-14.31
280.563	-123.31
280.831	740.69
281.1	1875.69
281.368	179.69
281.636	-95.31
281.904	-108.31
282.173	-9.31
282.441	-56.31
282.709	-97.31
282.977	19.69
283.246	44.69
283.514	-30.31
283.782	-75.31
284.05	12.69
284.318	60.69
284.587	-16.31
284.855	-134.31
285.123	-74.31
285.391	53.69
285.659	27.69
285.927	-169.31
286.195	-75.31
286.463	44.69
286.732	-22.31
287	-118.31
287.268	-53.31
287.536	40.69
287.804	-38.31
288.072	-145.31
288.34	-85.31
288.608	77.69
288.876	-25.31
289.144	-133.31
289.412	-29.31
289.68	33.69
289.948	-34.31
290.215	-126.31
290.483	-109.31
290.751	83.69
291.019	79.69
291.287	-174.31
291.555	-111.31
291.823	29.69
292.091	-2.31
292.358	-82.31
292.626	-26.31
292.894	79.69
293.162	30.69
293.43	-135.31
293.697	-95.31
293.965	41.69
294.233	-33.31
294.501	-174.31
294.768	-80.31
295.036	45.69
295.304	9.69
295.572	-151.31
295.839	-113.31
296.107	107.69
296.375	1.69
296.642	-130.31
296.91	-118.31
297.178	39.69
297.445	167.69
297.713	90.69
297.98	-76.31
298.248	-37.31
298.516	-44.31
298.783	-116.31
299.051	-116.31
299.318	5.69
299.586	-28.31
299.853	-77.31
300.121	-74.31
300.388	44.69
300.656	-20.31
300.923	-154.31
301.191	-52.31
301.458	30.69
301.726	-49.31
301.993	-156.31
302.26	-99.31
302.528	44.69
302.795	-30.31
303.063	-92.31
303.33	-60.31
303.597	12.69
303.865	5.69
304.132	-130.31
304.399	-133.31
304.667	-37.31
304.934	1.69
305.201	-120.31
305.469	-39.31
305.736	65.69
306.003	30.69
306.27	-77.31
306.538	-102.31
306.805	-7.31
307.072	-32.31
307.339	-94.31
307.606	-59.31
307.874	150.69
308.141	47.69
308.408	-150.31
308.675	-131.31
308.942	-70.31
309.209	-71.31
309.477	-129.31
309.744	-95.31
310.011	15.69
310.278	26.69
310.545	-46.31
310.812	-49.31
311.079	133.69
311.346	181.69
311.613	53.69
311.88	-41.31
312.147	-79.31
312.414	-51.31
312.681	-101.31
312.948	-28.31
313.215	112.69
313.482	73.69
313.749	-99.31
314.016	-215.31
314.283	-67.31
314.55	42.69
314.817	-110.31
315.083	-129.31
315.35	-79.31
315.617	-147.31
315.884	-159.31
316.151	60.69
316.418	163.69
316.684	-34.31
316.951	-195.31
317.218	-117.31
317.485	-14.31
317.752	-63.31
318.018	-127.31
318.285	-9.31
318.552	16.69
318.819	-67.31
319.085	-142.31
319.352	-59.31
319.619	29.69
319.885	-43.31
320.152	-206.31
320.419	-121.31
320.685	12.69
320.952	-44.31
321.219	-74.31
321.485	67.69
321.752	3.69
322.019	-65.31
322.285	8.69
322.552	-18.31
322.818	126.69
323.085	-21.31
323.351	-135.31
323.618	-25.31
323.884	34.69
324.151	-82.31
324.417	-52.31
324.684	-88.31
324.95	-58.31
325.217	-166.31
325.483	-185.31
325.75	-32.31
326.016	-2.31
326.283	-24.31
326.549	-195.31
326.815	-82.31
327.082	102.69
327.348	11.69
327.615	-108.31
327.881	-37.31
328.147	120.69
328.414	117.69
328.68	-12.31
328.946	-51.31
329.212	23.69
329.479	-2.31
329.745	-123.31
330.011	-127.31
330.278	-4.31
330.544	-56.31
330.81	-27.31
331.076	-51.31
331.342	-46.31
331.609	-44.31
331.875	-108.31
332.141	-120.31
332.407	15.69
332.673	1.69
332.94	-20.31
333.206	-49.31
333.472	43.69
333.738	59.69
334.004	-137.31
334.27	-31.31
334.536	1.69
334.802	-63.31
335.068	-139.31
335.334	-24.31
335.6	17.69
335.866	-44.31
336.132	-186.31
336.398	-108.31
336.664	-38.31
336.93	-62.31
337.196	-108.31
337.462	-35.31
337.728	30.69
337.994	-48.31
338.26	-120.31
338.526	-63.31
338.792	-61.31
339.058	-60.31
339.324	-160.31
339.59	-29.31
339.856	50.69
340.121	-72.31
340.387	-142.31
340.653	61.69
340.919	127.69
341.185	43.69
341.45	-77.31
341.716	28.69
341.982	105.69
342.248	-47.31
342.514	-96.31
342.779	-5.31
343.045	18.69
343.311	-22.31
343.576	-110.31
343.842	-61.31
344.108	107.69
344.374	8.69
344.639	-128.31
344.905	-112.31
345.171	39.69
345.436	-77.31
345.702	-118.31
345.967	42.69
346.233	72.69
346.499	-16.31
346.764	-193.31
347.03	-95.31
347.295	-59.31
347.561	-28.31
347.826	-56.31
348.092	-155.31
348.357	-49.31
348.623	-53.31
348.888	-157.31
349.154	-108.31
349.419	40.69
349.685	8.69
349.95	-90.31
350.216	-74.31
350.481	18.69
350.747	-78.31
351.012	-204.31
351.277	-137.31
351.543	7.69
351.808	-51.31
352.074	-209.31
352.339	-150.31
352.604	7.69
352.87	-27.31
353.135	-143.31
353.4	-100.31
353.666	-31.31
353.931	-58.31
354.196	-179.31
354.461	-159.31
354.727	13.69
354.992	-19.31
355.257	-148.31
355.522	-61.31
355.788	-23.31
356.053	24.69
356.318	-112.31
356.583	-133.31
356.848	61.69
357.113	156.69
357.379	-106.31
357.644	-115.31
357.909	65.69
358.174	67.69
358.439	-192.31
358.704	-119.31
358.969	11.69
359.234	37.69
359.499	-138.31
359.765	-75.31
360.03	27.69
360.295	16.69
360.56	-156.31
360.825	-100.31
361.09	110.69
361.355	-77.31
361.62	-98.31
361.885	-64.31
362.15	-97.31
362.415	-77.31
362.679	-143.31
362.944	6.69
363.209	16.69
363.474	36.69
363.739	-38.31
364.004	-126.31
364.269	-57.31
364.534	-22.31
364.799	-82.31
365.063	-74.31
365.328	50.69
365.593	27.69
365.858	-116.31
366.123	-113.31
366.387	19.69
366.652	-41.31
366.917	-162.31
367.182	-119.31
367.447	26.69
367.711	-15.31
367.976	-84.31
368.241	-28.31
368.505	28.69
368.77	-73.31
369.035	-81.31
369.299	-32.31
369.564	-20.31
369.829	-87.31
370.093	-122.31
370.358	-127.31
370.623	-17.31
370.887	-10.31
371.152	-157.31
371.416	-75.31
371.681	-46.31
371.946	-151.31
372.21	-182.31
372.475	-43.31
372.739	-4.31
373.004	-74.31
373.268	-115.31
373.533	-56.31
373.797	1.69
374.062	-8.31
374.326	-172.31
374.591	-78.31
374.855	0.69
375.12	-79.31
375.384	-234.31
375.648	-144.31
375.913	-5.31
376.177	5.69
376.442	-120.31
376.706	-112.31
376.97	2.69
377.235	-39.31
377.499	-79.31
377.763	-71.31
378.028	-84.31
378.292	-50.31
378.556	-127.31
378.821	-184.31
379.085	-101.31
379.349	-181.31
379.614	-244.31
379.878	-131.31
380.142	64.69
380.406	-29.31
380.671	-44.31
380.935	83.69
381.199	187.69
381.463	43.69
381.727	-13.31
381.991	-54.31
382.256	15.69
382.52	-53.31
382.784	-58.31
383.048	79.69
383.312	6.69
383.576	-34.31
383.84	-154.31
384.104	-95.31
384.369	-13.31
384.633	-136.31
384.897	-231.31
385.161	-98.31
385.425	15.69
385.689	-70.31
385.953	-145.31
386.217	-149.31
386.481	-56.31
386.745	-49.31
387.009	-82.31
387.273	-127.31
387.537	-82.31
387.801	-50.31
388.064	-130.31
388.328	-52.31
388.592	-4.31
388.856	-67.31
389.12	-135.31
389.384	-67.31
389.648	-35.31
389.912	31.69
390.176	29.69
390.439	123.69
390.703	-59.31
390.967	-91.31
391.231	-176.31
391.495	-128.31
391.758	-61.31
392.022	-36.31
392.286	-174.31
392.55	-141.31
392.813	-28.31
393.077	14.69
393.341	-67.31
393.605	-6.31
393.868	-42.31
394.132	-69.31
394.396	-93.31
394.659	25.69
394.923	-19.31
395.187	-84.31
395.45	-110.31
395.714	-60.31
395.978	-40.31
396.241	-38.31
396.505	-108.31
396.768	-65.31
397.032	-9.31
397.295	-0.31
397.559	-83.31
397.823	-128.31
398.086	4.69
398.35	-51.31
398.613	-168.31
398.877	-20.31
399.14	93.69
399.404	91.69
399.667	-16.31
399.931	-94.31
400.194	-1.31
400.457	-49.31
400.721	-80.31
400.984	17.69
401.248	-35.31
401.511	-59.31
401.775	-166.31
402.038	-131.31
402.301	67.69
402.565	0.69
402.828	-198.31
403.091	-118.31
403.355	-6.31
403.618	-10.31
403.881	-19.31
404.145	-49.31
404.408	-3.31
404.671	-46.31
404.934	-39.31
405.198	-11.31
405.461	-16.31
405.724	4.69
405.987	-40.31
406.251	4.69
406.514	106.69
406.777	-34.31
407.04	-123.31
407.303	-126.31
407.567	30.69
407.83	74.69
408.093	-154.31
408.356	-49.31
408.619	17.69
408.882	68.69
409.145	-37.31
409.408	-69.31
409.672	25.69
409.935	-59.31
410.198	-161.31
410.461	-91.31
410.724	84.69
410.987	-17.31
411.25	-156.31
411.513	-21.31
411.776	36.69
412.039	-83.31
412.302	-141.31
412.565	-130.31
412.828	-70.31
413.091	-81.31
413.354	-156.31
413.617	-123.31
413.879	-42.31
414.142	-20.31
414.405	-145.31
414.668	-75.31
414.931	30.69
415.194	3.69
415.457	-145.31
415.72	-60.31
415.983	-10.31
416.245	-18.31
416.508	-122.31
416.771	-164.31
417.034	-11.31
417.297	7.69
417.559	-41.31
417.822	-66.31
418.085	9.69
418.348	-5.31
418.61	-167.31
418.873	-143.31
419.136	-91.31
419.399	-108.31
419.661	-82.31
419.924	-91.31
420.187	-14.31
420.449	-43.31
420.712	-102.31
420.975	-145.31
421.237	-41.31
421.5	-44.31
421.762	-29.31
422.025	27.69
422.288	52.69
422.55	-127.31
422.813	-193.31
423.075	-91.31
423.338	-33.31
423.601	-14.31
423.863	-54.31
424.126	-61.31
424.388	51.69
424.651	-10.31
424.913	-74.31
425.176	-84.31
425.438	-54.31
425.701	25.69
425.963	-109.31
426.225	-173.31
426.488	-69.31
426.75	-75.31
427.013	-147.31
427.275	-107.31
427.538	-69.31
427.8	-59.31
428.062	-146.31
428.325	-82.31
428.587	28.69
428.849	-30.31
429.112	-114.31
429.374	-139.31
429.636	-58.31
429.899	26.69
430.161	-105.31
430.423	-64.31
430.686	30.69
430.948	1.69
431.21	-135.31
431.472	-146.31
431.735	-74.31
431.997	-91.31
432.259	-44.31
432.521	-130.31
432.783	-29.31
433.046	-48.31
433.308	-142.31
433.57	-93.31
433.832	127.69
434.094	-57.31
434.356	-186.31
434.618	-113.31
434.881	-40.31
435.143	-88.31
435.405	-55.31
435.667	-21.31
435.929	-36.31
436.191	-67.31
436.453	-148.31
436.715	-54.31
436.977	14.69
437.239	-43.31
437.501	-181.31
437.763	-143.31
438.025	-5.31
438.287	-31.31
438.549	-113.31
438.811	-83.31
439.073	-28.31
439.335	-90.31
439.597	-127.31
439.859	-53.31
440.121	61.69
440.383	-131.31
440.645	-130.31
440.907	-58.31
441.168	-10.31
441.43	-73.31
441.692	-175.31
441.954	-135.31
442.216	-52.31
442.478	-92.31
442.74	-193.31
443.001	-64.31
443.263	74.69
443.525	3.69
443.787	-113.31
444.048	-97.31
444.31	-78.31
444.572	-84.31
444.834	-111.31
445.095	-105.31
445.357	30.69
445.619	-34.31
445.881	-226.31
446.142	-136.31
446.404	-88.31
446.666	-72.31
446.927	-117.31
447.189	1.69
447.451	28.69
447.712	-26.31
447.974	-239.31
448.235	-184.31
448.497	-35.31
448.759	-118.31
449.02	-185.31
449.282	-190.31
449.543	-17.31
449.805	43.69
450.066	-204.31
450.328	-68.31
450.59	130.69
450.851	-27.31
451.113	-68.31
451.374	-144.31
451.636	-6.31
451.897	15.69
452.158	-61.31
452.42	43.69
452.681	67.69
452.943	-119.31
453.204	-202.31
453.466	-188.31
453.727	-85.31
453.988	-47.31
454.25	-180.31
454.511	-195.31
454.773	-80.31
455.034	76.69
455.295	-134.31
455.557	-160.31
455.818	-59.31
456.079	-43.31
456.341	68.69
456.602	15.69
456.863	8.69
457.124	-62.31
457.386	-178.31
457.647	-175.31
457.908	-82.31
458.169	25.69
458.431	-170.31
458.692	-175.31
458.953	-60.31
459.214	-95.31
459.476	-104.31
459.737	-32.31
459.998	9.69
460.259	-76.31
460.52	-166.31
460.781	-120.31
461.043	58.69
461.304	-84.31
461.565	-181.31
461.826	-139.31
462.087	-39.31
462.348	-7.31
462.609	-145.31
462.87	-71.31
463.131	-83.31
463.392	-19.31
463.653	-99.31
463.914	-76.31
464.175	-34.31
464.436	-93.31
464.697	-159.31
464.958	-136.31
465.219	-30.31
465.48	-40.31
465.741	-57.31
466.002	-107.31
466.263	-49.31
466.524	-58.31
466.785	-148.31
467.046	-116.31
467.307	-24.31
467.568	-92.31
467.829	-115.31
468.089	-94.31
468.35	-52.31
468.611	-97.31
468.872	-165.31
469.133	-42.31
469.394	27.69
469.655	75.69
469.915	-109.31
470.176	-175.31
470.437	-134.31
470.698	-53.31
470.958	-118.31
471.219	-174.31
471.48	-105.31
471.741	-123.31
472.001	-182.31
472.262	-113.31
472.523	6.69
472.784	25.69
473.044	-126.31
473.305	-79.31
473.566	20.69
473.826	-14.31
474.087	-125.31
474.348	-113.31
474.608	-44.31
474.869	7.69
475.129	-129.31
475.39	-168.31
475.651	-60.31
475.911	-45.31
476.172	-181.31
476.432	-56.31
476.693	71.69
476.953	-14.31
477.214	-13.31
477.475	-13.31
477.735	-10.31
477.996	-15.31
478.256	-185.31
478.517	-158.31
478.777	-62.31
479.038	9.69
479.298	-14.31
479.558	-107.31
479.819	37.69
480.079	55.69
480.34	-33.31
480.6	-117.31
480.861	-15.31
481.121	-42.31
481.381	-139.31
481.642	-57.31
481.902	-51.31
482.162	-114.31
482.423	-100.31
482.683	-20.31
482.943	13.69
483.204	-83.31
483.464	-107.31
483.724	-86.31
483.985	-40.31
484.245	-5.31
484.505	-108.31
484.765	-23.31
485.026	60.69
485.286	21.69
485.546	-60.31
485.806	11.69
486.067	19.69
486.327	-102.31
486.587	-159.31
486.847	-156.31
487.107	-43.31
487.368	-29.31
487.628	-83.31
487.888	-79.31
488.148	6.69
488.408	-79.31
488.668	-83.31
488.928	-43.31
489.188	-24.31
489.449	67.69
489.709	-88.31
489.969	-96.31
490.229	-2.31
490.489	-39.31
490.749	-123.31
491.009	-192.31
491.269	-107.31
491.529	-91.31
491.789	-176.31
492.049	-74.31
492.309	44.69
492.569	-84.31
492.829	-103.31
493.089	-103.31
493.349	47.69
493.609	-39.31
493.869	-145.31
494.129	-70.31
494.389	44.69
494.648	-78.31
494.908	-181.31
495.168	-92.31
495.428	43.69
495.688	-30.31
495.948	-199.31
496.208	-190.31
496.467	-118.31
496.727	-60.31
496.987	-80.31
497.247	-94.31
497.507	-11.31
497.767	16.69
498.026	-155.31
498.286	-49.31
498.546	141.69
498.806	-1.31
499.065	30.69
499.325	-38.31
499.585	-38.31
499.845	-35.31
500.104	-52.31
500.364	49.69
500.624	-0.31
500.883	-75.31
501.143	-38.31
501.403	21.69
501.662	96.69
501.922	3.69
502.182	-133.31
502.441	-129.31
502.701	-73.31
502.96	28.69
503.22	-67.31
503.48	-96.31
503.739	-19.31
503.999	-64.31
504.258	-135.31
504.518	-85.31
504.777	21.69
505.037	-46.31
505.296	-103.31
505.556	-112.31
505.815	25.69
506.075	114.69
506.334	-19.31
506.594	-170.31
506.853	-101.31
507.113	-98.31
507.372	-235.31
507.632	-173.31
507.891	-73.31
508.151	-20.31
508.41	-158.31
508.669	-123.31
508.929	23.69
509.188	-38.31
509.447	-110.31
509.707	-137.31
509.966	-44.31
510.226	-33.31
510.485	-92.31
510.744	-74.31
511.004	18.69
511.263	-70.31
511.522	-156.31
511.781	-108.31
512.041	21.69
512.3	-47.31
512.559	-2.31
512.818	24.69
513.078	5.69
513.337	-14.31
513.596	-88.31
513.855	-100.31
514.115	13.69
514.374	-37.31
514.633	-160.31
514.892	-188.31
515.151	-23.31
515.41	24.69
515.67	-75.31
515.929	-121.31
516.188	-27.31
516.447	-56.31
516.706	-142.31
516.965	-115.31
517.224	-67.31
517.483	-77.31
517.743	-105.31
518.002	-70.31
518.261	27.69
518.52	-17.31
518.779	-137.31
519.038	-126.31
519.297	-70.31
519.556	-80.31
519.815	-166.31
520.074	-163.31
520.333	-53.31
520.592	-75.31
520.851	-164.31
521.11	-42.31
521.369	123.69
521.628	-82.31
521.887	-155.31
522.145	-77.31
522.404	-41.31
522.663	-56.31
522.922	-194.31
523.181	-182.31
523.44	-46.31
523.699	-10.31
523.958	-175.31
524.217	-133.31
524.475	-103.31
524.734	-141.31
524.993	-158.31
525.252	-101.31
525.511	-36.31
525.769	-78.31
526.028	-146.31
526.287	-90.31
526.546	-31.31
526.805	-55.31
527.063	-156.31
527.322	-174.31
527.581	-69.31
527.839	-65.31
528.098	-83.31
528.357	-55.31
528.616	-31.31
528.874	-53.31
529.133	-84.31
529.392	-68.31
529.65	-24.31
529.909	-53.31
530.168	-155.31
530.426	-122.31
530.685	24.69
530.943	-28.31
531.202	-161.31
531.461	-137.31
531.719	-6.31
531.978	-57.31
532.236	-131.31
532.495	-52.31
532.753	-4.31
533.012	-102.31
533.271	-163.31
533.529	-161.31
533.788	-84.31
534.046	-162.31
534.305	-187.31
534.563	40.69
534.822	119.69
535.08	-8.31
535.338	-135.31
535.597	-81.31
535.855	-2.31
536.114	-45.31
536.372	-133.31
536.631	-64.31
536.889	44.69
537.147	-36.31
537.406	-200.31
537.664	-90.31
537.923	-27.31
538.181	-17.31
538.439	-154.31
538.698	-27.31
538.956	-27.31
539.214	-63.31
539.473	-110.31
539.731	-47.31
539.989	15.69
540.248	-53.31
540.506	-112.31
540.764	-94.31
541.022	7.69
541.281	26.69
541.539	-84.31
541.797	-136.31
542.055	-4.31
542.314	100.69
542.572	61.69
542.83	-79.31
543.088	31.69
543.346	-12.31
543.604	-100.31
543.863	-3.31
544.121	142.69
544.379	49.69
544.637	-47.31
544.895	93.69
545.153	217.69
545.411	78.69
545.67	-83.31
545.928	-5.31
546.186	177.69
546.444	263.69
546.702	201.69
546.96	281.69
547.218	390.69
547.476	365.69
547.734	353.69
547.992	483.69
548.25	666.69
548.508	662.69
548.766	730.69
549.024	875.69
549.282	1035.69
549.54	1216.69
549.798	1352.69
550.056	1512.69
550.314	1789.69
550.572	1918.69
550.83	1967.69
551.088	2235.69
551.346	2534.69
551.603	2744.69
551.861	2815.69
552.119	3062.69
552.377	3355.69
552.635	3437.69
552.893	3472.69
553.151	3609.69
553.409	3888.69
553.666	4025.69
553.924	4030.69
554.182	4110.69
554.44	4281.69
554.698	4384.69
554.955	4330.69
555.213	4311.69
555.471	4401.69
555.729	4285.69
555.986	4103.69
556.244	4110.69
556.502	4208.69
556.76	3933.69
557.017	3752.69
557.275	3649.69
557.533	3626.69
557.79	3419.69
558.048	3024.69
558.306	2901.69
558.563	2874.69
558.821	2611.69
559.079	2356.69
559.336	2227.69
559.594	2139.69
559.852	1872.69
560.109	1701.69
560.367	1668.69
560.624	1563.69
560.882	1380.69
561.14	1216.69
561.397	1179.69
561.655	1004.69
561.912	904.69
562.17	697.69
562.427	692.69
562.685	679.69
562.942	597.69
563.2	388.69
563.457	397.69
563.715	407.69
563.972	378.69
564.23	160.69
564.487	107.69
564.745	222.69
565.002	223.69
565.26	98.69
565.517	51.69
565.774	93.69
566.032	89.69
566.289	21.69
566.547	29.69
566.804	119.69
567.061	64.69
567.319	-65.31
567.576	25.69
567.833	155.69
568.091	186.69
568.348	7.69
568.605	35.69
568.863	57.69
569.12	35.69
569.377	-66.31
569.635	-63.31
569.892	-27.31
570.149	-57.31
570.406	-159.31
570.664	-104.31
570.921	13.69
571.178	-83.31
571.435	-72.31
571.693	-72.31
571.95	1.69
572.207	-50.31
572.464	-74.31
572.721	-10.31
572.979	81.69
573.236	4.69
573.493	-89.31
573.75	-63.31
574.007	45.69
574.264	-33.31
574.521	-95.31
574.779	-72.31
575.036	8.69
575.293	-50.31
575.55	-124.31
575.807	-84.31
576.064	18.69
576.321	-44.31
576.578	-199.31
576.835	-154.31
577.092	78.69
577.349	8.69
577.606	-202.31
577.863	-130.31
578.12	7.69
578.377	1.69
578.634	-220.31
578.891	-147.31
579.148	-29.31
579.405	-100.31
579.662	-185.31
579.919	-90.31
580.176	-60.31
580.433	-45.31
580.69	-107.31
580.947	-96.31
581.204	-26.31
581.461	-54.31
581.717	-142.31
581.974	22.69
582.231	35.69
582.488	-65.31
582.745	-128.31
583.002	-114.31
583.259	16.69
583.515	-30.31
583.772	-190.31
584.029	-125.31
584.286	28.69
584.543	-135.31
584.799	-160.31
585.056	-80.31
585.313	1.69
585.57	47.69
585.826	-118.31
586.083	-21.31
586.34	146.69
586.597	-47.31
586.853	-190.31
587.11	-171.31
587.367	14.69
587.623	81.69
587.88	-14.31
588.137	-114.31
588.393	0.69
588.65	-71.31
588.907	-154.31
589.163	-89.31
589.42	-36.31
589.677	-15.31
589.933	-138.31
590.19	-38.31
590.446	99.69
590.703	63.69
590.96	-173.31
591.216	-197.31
591.473	-81.31
591.729	-75.31
591.986	-68.31
592.242	-18.31
592.499	159.69
592.755	13.69
593.012	-196.31
593.268	-108.31
593.525	-50.31
593.781	-29.31
594.038	-132.31
594.294	-93.31
594.551	-55.31
594.807	-135.31
595.064	-154.31
595.32	-154.31
595.576	-26.31
595.833	26.69
596.089	-83.31
596.346	-20.31
596.602	18.69
596.858	66.69
597.115	-81.31
597.371	-28.31
597.628	-18.31
597.884	-69.31
598.14	-139.31
598.397	-7.31
598.653	76.69
598.909	-38.31
599.166	-180.31
599.422	-115.31
599.678	-1.31
599.934	-17.31
600.191	-155.31
600.447	-100.31
600.703	-53.31
600.959	-79.31
601.216	-215.31
601.472	-164.31
601.728	-33.31
601.984	-102.31
602.241	-185.31
602.497	-98.31
602.753	35.69
603.009	-55.31
603.265	-167.31
603.521	-15.31
603.778	83.69
604.034	-121.31
604.29	-205.31
604.546	-121.31
604.802	-20.31
605.058	-87.31
605.314	-207.31
605.571	-125.31
605.827	-81.31
606.083	-76.31
606.339	-174.31
606.595	-59.31
606.851	33.69
607.107	48.69
607.363	-158.31
607.619	-116.31
607.875	88.69
608.131	29.69
608.387	-222.31
608.643	-150.31
608.899	-48.31
609.155	-60.31
609.411	-79.31
609.667	-69.31
609.923	-41.31
610.179	-72.31
610.435	-258.31
610.691	-169.31
610.947	-3.31
611.203	-91.31
611.459	-141.31
611.714	-32.31
611.97	100.69
612.226	19.69
612.482	-163.31
612.738	-70.31
612.994	126.69
613.25	-23.31
613.505	-157.31
613.761	-101.31
614.017	-20.31
614.273	-34.31
614.529	-88.31
614.785	-147.31
615.04	-41.31
615.296	-27.31
615.552	-102.31
615.808	-87.31
616.063	-8.31
616.319	-31.31
616.575	-140.31
616.831	-102.31
617.086	115.69
617.342	48.69
617.598	-75.31
617.854	-10.31
618.109	58.69
618.365	-106.31
618.621	-181.31
618.876	-64.31
619.132	40.69
619.388	-5.31
619.643	-156.31
619.899	-60.31
620.155	35.69
620.41	10.69
620.666	-121.31
620.921	-76.31
621.177	56.69
621.433	70.69
621.688	-40.31
621.944	-133.31
622.199	-48.31
622.455	-37.31
622.71	-149.31
622.966	-112.31
623.221	-89.31
623.477	-83.31
623.732	-67.31
623.988	-151.31
624.243	-4.31
624.499	2.69
624.754	-167.31
625.01	-141.31
625.265	-55.31
625.521	38.69
625.776	-62.31
626.032	-27.31
626.287	-10.31
626.543	-75.31
626.798	-117.31
627.053	-63.31
627.309	-15.31
627.564	-78.31
627.82	-72.31
628.075	6.69
628.33	-18.31
628.586	-138.31
628.841	-232.31
629.096	-120.31
629.352	-29.31
629.607	-133.31
629.862	-157.31
630.118	-49.31
630.373	-86.31
630.628	-34.31
630.884	-139.31
631.139	-95.31
631.394	40.69
631.649	-33.31
631.905	-164.31
632.16	-58.31
632.415	128.69
632.67	-48.31
632.926	-166.31
633.181	-163.31
633.436	-23.31
633.691	-86.31
633.946	-219.31
634.202	-191.31
634.457	-27.31
634.712	-73.31
634.967	-183.31
635.222	-203.31
635.477	-88.31
635.733	-70.31
635.988	-170.31
636.243	-162.31
636.498	-15.31
636.753	-46.31
637.008	-164.31
637.263	-74.31
637.518	-27.31
637.773	-43.31
638.028	-98.31
638.283	-76.31
638.539	34.69
638.794	-3.31
639.049	-140.31
639.304	-144.31
639.559	-72.31
639.814	-94.31
640.069	-145.31
640.324	-124.31
640.579	-33.31
640.834	-37.31
641.089	-161.31
641.344	-94.31
641.598	101.69
641.853	-4.31
642.108	-146.31
642.363	-195.31
642.618	-28.31
642.873	-77.31
643.128	-194.31
643.383	-131.31
643.638	-10.31
643.893	23.69
644.148	-56.31
644.402	-134.31
644.657	-13.31
644.912	-86.31
645.167	-112.31
645.422	-28.31
645.677	-45.31
645.931	14.69
646.186	13.69
646.441	-62.31
646.696	-91.31
646.951	-74.31
647.205	-96.31
647.46	-83.31
647.715	-74.31
647.97	74.69
648.224	201.69
648.479	-12.31
648.734	81.69
648.989	26.69
649.243	-79.31
649.498	-125.31
649.753	-63.31
650.007	-15.31
650.262	-100.31
650.517	-100.31
650.771	-45.31
651.026	-113.31
651.281	-208.31
651.535	-76.31
651.79	-56.31
652.045	-78.31
652.299	-154.31
652.554	-137.31
652.809	-28.31
653.063	118.69
653.318	9.69
653.572	-90.31
653.827	46.69
654.081	-26.31
654.336	-179.31
654.591	-162.31
654.845	-47.31
655.1	-84.31
655.354	-130.31
655.609	-68.31
655.863	21.69
656.118	0.69
656.372	-145.31
656.627	-129.31
656.881	-6.31
657.136	-68.31
657.39	-178.31
657.645	-42.31
657.899	84.69
658.153	-4.31
658.408	-114.31
658.662	-56.31
658.917	-26.31
659.171	-114.31
659.426	-196.31
659.68	-114.31
659.934	-21.31
660.189	-47.31
660.443	-155.31
660.697	-8.31
660.952	72.69
661.206	-67.31
661.46	-209.31
661.715	-122.31
661.969	-28.31
662.223	-61.31
662.478	-143.31
662.732	-71.31
662.986	-27.31
663.241	-36.31
663.495	-173.31
663.749	-119.31
664.003	6.69
664.258	-67.31
664.512	-142.31
664.766	-82.31
665.02	-16.31
665.275	11.69
665.529	-163.31
665.783	-122.31
666.037	-34.31
666.291	-68.31
666.546	-127.31
666.8	-77.31
667.054	-96.31
667.308	-64.31
667.562	-232.31
667.816	-147.31
668.071	-43.31
668.325	-132.31
668.579	-144.31
668.833	-92.31
669.087	46.69
669.341	-33.31
669.595	-180.31
669.849	-100.31
670.103	-65.31
670.357	-64.31
670.612	-97.31
670.866	-100.31
671.12	-52.31
671.374	-77.31
671.628	-96.31
671.882	-137.31
672.136	-64.31
672.39	-52.31
672.644	-212.31
672.898	-63.31
673.152	85.69
673.406	-1.31
673.66	-90.31
673.914	-26.31
674.168	33.69
674.422	-56.31
674.675	-148.31
674.929	-71.31
675.183	32.69
675.437	-22.31
675.691	-84.31
675.945	-32.31
676.199	87.69
676.453	-34.31
676.707	-170.31
676.961	-165.31
677.214	-74.31
677.468	-44.31
677.722	-50.31
677.976	-75.31
678.23	-27.31
678.484	-20.31
678.737	-169.31
678.991	-125.31
679.245	-45.31
679.499	-77.31
679.753	-162.31
680.006	-80.31
680.26	17.69
680.514	14.69
680.768	-131.31
681.021	-73.31
681.275	-42.31
681.529	-31.31
681.783	-94.31
682.036	-92.31
682.29	-102.31
682.544	-61.31
682.797	-91.31
683.051	-132.31
683.305	-77.31
683.559	-71.31
683.812	-60.31
684.066	-67.31
684.32	-28.31
684.573	-68.31
684.827	-60.31
685.08	-23.31
685.334	56.69
685.588	-36.31
685.841	-164.31
686.095	-33.31
686.348	-9.31
686.602	-5.31
686.856	-38.31
687.109	-99.31
687.363	-62.31
687.616	-91.31
687.87	-224.31
688.123	-165.31
688.377	-50.31
688.63	-19.31
688.884	-30.31
689.137	68.69
689.391	77.69
689.644	-88.31
689.898	-184.31
690.151	-164.31
690.405	-47.31
690.658	-56.31
690.912	-100.31
691.165	-113.31
691.419	-60.31
691.672	-15.31
691.926	-96.31
692.179	-100.31
692.432	-38.31
692.686	-81.31
692.939	-196.31
693.193	-147.31
693.446	29.69
693.699	-2.31
693.953	-16.31
694.206	-58.31
694.459	15.69
694.713	56.69
694.966	-115.31
695.219	-110.31
695.473	-12.31
695.726	-103.31
695.979	-164.31
696.233	-58.31
696.486	0.69
696.739	-39.31
696.992	-153.31
697.246	-30.31
697.499	45.69
697.752	-121.31
698.006	-148.31
698.259	-37.31
698.512	-67.31
698.765	-112.31
699.018	-127.31
699.272	-40.31
699.525	-68.31
699.778	-132.31
700.031	-170.31
700.284	-151.31
700.538	-20.31
700.791	-28.31
701.044	-81.31
701.297	-79.31
701.55	-46.31
701.803	-67.31
702.056	-188.31
702.31	-117.31
702.563	-14.31
702.816	-99.31
703.069	-234.31
703.322	-152.31
703.575	-30.31
703.828	5.69
704.081	-108.31
704.334	-124.31
704.587	-53.31
704.84	-121.31
705.093	-144.31
705.346	-2.31
705.599	-5.31
705.853	3.69
706.106	27.69
706.359	257.69
706.612	1.69
706.865	32.69
707.118	-146.31
707.37	-84.31
707.623	47.69
707.876	-4.31
708.129	-47.31
708.382	41.69
708.635	126.69
708.888	-56.31
709.141	-162.31
709.394	-60.31
709.647	42.69
709.9	-86.31
710.153	-204.31
710.406	-86.31
710.658	23.69
710.911	-53.31
711.164	-171.31
711.417	-136.31
711.67	-69.31
711.923	-16.31
712.176	-148.31
712.428	-105.31
712.681	-37.31
712.934	-20.31
713.187	-111.31
713.44	-155.31
713.692	-14.31
713.945	-67.31
714.198	-183.31
714.451	-200.31
714.704	-40.31
714.956	5.69
715.209	16.69
715.462	-40.31
715.715	-7.31
715.967	-22.31
716.22	-164.31
716.473	-153.31
716.725	26.69
716.978	-31.31
717.231	-51.31
717.484	-24.31
717.736	-78.31
717.989	-156.31
718.242	-227.31
718.494	-114.31
718.747	23.69
718.999	-63.31
719.252	-40.31
719.505	-41.31
719.757	-30.31
720.01	-70.31
720.263	-116.31
720.515	-85.31
720.768	18.69
721.02	-3.31
721.273	-151.31
721.525	-180.31
721.778	-44.31
722.031	19.69
722.283	-141.31
722.536	-124.31
722.788	-42.31
723.041	-82.31
723.293	-155.31
723.546	-165.31
723.798	-42.31
724.051	28.69
724.303	-36.31
724.556	-39.31
724.808	110.69
725.061	26.69
725.313	-88.31
725.566	-71.31
725.818	-35.31
726.071	-61.31
726.323	-192.31
726.575	-101.31
726.828	31.69
727.08	26.69
727.333	-140.31
727.585	-118.31
727.837	-47.31
728.09	-41.31
728.342	-180.31
728.595	-86.31
728.847	94.69
729.099	-148.31
729.352	-161.31
729.604	-141.31
729.856	-51.31
730.109	-78.31
730.361	-156.31
730.613	-55.31
730.866	46.69
731.118	-97.31
731.37	-172.31
731.622	-146.31
731.875	-63.31
732.127	-4.31
732.379	-56.31
732.631	17.69
732.884	7.69
733.136	-71.31
733.388	-165.31
733.64	-92.31
733.893	25.69
734.145	-33.31
734.397	-163.31
734.649	-147.31
734.901	-44.31
735.154	-120.31
735.406	-206.31
735.658	-137.31
735.91	-6.31
736.162	-78.31
736.414	-177.31
736.667	-69.31
736.919	-43.31
737.171	-132.31
737.423	-138.31
737.675	-108.31
737.927	2.69
738.179	-40.31
738.431	-71.31
738.684	-142.31
738.936	-59.31
739.188	2.69
739.44	-188.31
739.692	-174.31
739.944	-144.31
740.196	-115.31
740.448	-167.31
740.7	-168.31
740.952	-106.31
741.204	-102.31
741.456	-184.31
741.708	-109.31
741.96	-104.31
742.212	-39.31
742.464	-49.31
742.716	-178.31
742.968	-82.31
743.22	-133.31
743.472	-203.31
743.724	-124.31
743.976	19.69
744.228	23.69
744.48	-209.31
744.732	-172.31
744.983	-18.31
745.235	-57.31
745.487	-121.31
745.739	-90.31
745.991	-109.31
746.243	-20.31
746.495	-173.31
746.747	-172.31
746.999	-72.31
747.25	-74.31
747.502	-119.31
747.754	-23.31
748.006	-78.31
748.258	25.69
748.51	31.69
748.761	-111.31
749.013	-44.31
749.265	39.69
749.517	8.69
749.768	37.69
750.02	50.69
750.272	3.69
750.524	-149.31
750.776	-211.31
751.027	-13.31
751.279	38.69
751.531	-178.31
751.782	-102.31
752.034	15.69
752.286	-88.31
752.538	-217.31
752.789	-104.31
753.041	-9.31
753.293	-37.31
753.544	-118.31
753.796	-98.31
754.048	-2.31
754.299	-17.31
754.551	-79.31
754.803	-123.31
755.054	-95.31
755.306	-41.31
755.558	-147.31
755.809	-128.31
756.061	32.69
756.312	-70.31
756.564	-110.31
756.816	-83.31
757.067	-64.31
757.319	-87.31
757.57	-108.31
757.822	-29.31
758.073	30.69
758.325	-22.31
758.577	-163.31
758.828	-129.31
759.08	92.69
759.331	88.69
759.583	-127.31
759.834	-38.31
760.086	-61.31
760.337	-76.31
760.589	-121.31
760.84	-116.31
761.092	-41.31
761.343	-63.31
761.595	-213.31
761.846	-73.31
762.097	-40.31
762.349	-99.31
762.6	-243.31
762.852	-98.31
763.103	46.69
763.355	-84.31
763.606	-173.31
763.857	-23.31
764.109	74.69
764.36	-22.31
764.612	-118.31
764.863	-24.31
765.114	-9.31
765.366	-131.31
765.617	-215.31
765.868	-151.31
766.12	5.69
766.371	13.69
766.622	-190.31
766.874	-114.31
767.125	23.69
767.376	-96.31
767.628	-175.31
767.879	-106.31
768.13	2.69
768.381	-24.31
768.633	-81.31
768.884	-79.31
769.135	3.69
769.386	-16.31
769.638	-96.31
769.889	-92.31
770.14	-30.31
770.391	-118.31
770.643	-178.31
770.894	-170.31
771.145	-60.31
771.396	-128.31
771.647	-209.31
771.899	-85.31
772.15	-5.31
772.401	-37.31
772.652	-165.31
772.903	-156.31
773.154	196.69
773.406	462.69
773.657	-92.31
773.908	-116.31
774.159	-28.31
774.41	-11.31
774.661	-152.31
774.912	-101.31
775.163	44.69
775.414	47.69
775.666	-186.31
775.917	-163.31
776.168	-101.31
776.419	-90.31
776.67	-180.31
776.921	-167.31
777.172	-74.31
777.423	-47.31
777.674	-35.31
777.925	-50.31
778.176	-119.31
778.427	-98.31
778.678	-171.31
778.929	-146.31
779.18	-47.31
779.431	-129.31
779.682	-126.31
779.933	-79.31
780.184	-49.31
780.435	-77.31
780.686	-124.31
780.937	-60.31
781.188	-17.31
781.439	74.69
781.69	3.69
781.941	-57.31
782.191	-40.31
782.442	-70.31
782.693	-160.31
782.944	-169.31
783.195	-72.31
783.446	-50.31
783.697	-37.31
783.948	-131.31
784.199	-109.31
784.449	-122.31
784.7	-128.31
784.951	-107.31
785.202	32.69
785.453	3.69
785.704	-181.31
785.954	-191.31
786.205	-99.31
786.456	-140.31
786.707	-229.31
786.958	-182.31
787.208	-58.31
787.459	-116.31
787.71	-100.31
787.961	-125.31
788.211	-76.31
788.462	-84.31
788.713	-131.31
788.964	-142.31
789.214	-55.31
789.465	-35.31
789.716	-84.31
789.967	-80.31
790.217	-95.31
790.468	-125.31
790.719	-184.31
790.969	-148.31
791.22	-106.31
791.471	-44.31
791.721	-12.31
791.972	-113.31
792.223	-33.31
792.473	-102.31
792.724	-125.31
792.975	-140.31
793.225	-63.31
793.476	-100.31
793.726	-174.31
793.977	-70.31
794.228	50.69
794.478	-64.31
794.729	-143.31
794.979	-44.31
795.23	-5.31
795.481	-51.31
795.731	-184.31
795.982	-120.31
796.232	-112.31
796.483	-153.31
796.733	-187.31
796.984	-121.31
797.234	-41.31
797.485	-33.31
797.735	-201.31
797.986	-160.31
798.236	-21.31
798.487	-85.31
798.737	-95.31
798.988	-4.31
799.238	42.69
799.489	-71.31
799.739	-173.31
799.99	-100.31
800.24	4.69
800.491	53.69
800.741	-99.31
800.991	-154.31
801.242	-89.31
801.492	-64.31
801.743	-127.31
801.993	11.69
802.244	100.69
802.494	-74.31
802.744	-105.31
802.995	-67.31
803.245	-47.31
803.495	-83.31
803.746	-132.31
803.996	-62.31
804.246	-63.31
804.497	-50.31
804.747	-172.31
804.997	-86.31
805.248	-77.31
805.498	-124.31
805.748	-103.31
805.999	-198.31
806.249	-113.31
806.499	-100.31
806.75	-199.31
807	-182.31
807.25	-62.31
807.5	-114.31
807.751	-138.31
808.001	-70.31
808.251	-46.31
808.501	22.69
808.752	-0.31
809.002	-56.31
809.252	-69.31
809.502	-107.31
809.752	-140.31
810.003	-174.31
810.253	-106.31
810.503	-77.31
810.753	-47.31
811.003	-38.31
811.254	11.69
811.504	-67.31
811.754	-105.31
812.004	-93.31
812.254	122.69
812.504	-42.31
812.754	-137.31
813.005	-52.31
813.255	26.69
813.505	-52.31
813.755	-141.31
814.005	-66.31
814.255	-50.31
814.505	-105.31
814.755	-193.31
815.005	-161.31
815.255	-44.31
815.505	-95.31
815.756	-41.31
816.006	-50.31
816.256	-85.31
816.506	-136.31
816.756	-199.31
817.006	-162.31
817.256	-51.31
817.506	-67.31
817.756	-131.31
818.006	-118.31
818.256	-52.31
818.506	-71.31
818.756	-183.31
819.006	-127.31
819.256	-35.31
819.506	-100.31
819.756	-164.31
820.006	-79.31
820.255	-30.31
820.505	-53.31
820.755	-173.31
821.005	-139.31
821.255	-20.31
821.505	-64.31
821.755	-146.31
822.005	-49.31
822.255	27.69
822.505	-86.31
822.755	-66.31
823.004	-171.31
823.254	-166.31
823.504	-85.31
823.754	-65.31
824.004	-135.31
824.254	-36.31
824.504	-46.31
824.753	-20.31
825.003	-18.31
825.253	16.69
825.503	-91.31
825.753	-139.31
826.002	-60.31
826.252	148.69
826.502	-64.31
826.752	-154.31
827.002	-120.31
827.251	-20.31
827.501	-91.31
827.751	-163.31
828.001	-126.31
828.25	-13.31
828.5	-152.31
828.75	-188.31
829	-96.31
829.249	21.69
829.499	-112.31
829.749	-147.31
829.998	-76.31
830.248	-38.31
830.498	-145.31
830.748	-150.31
830.997	-94.31
831.247	-5.31
831.497	2.69
831.746	-89.31
831.996	-10.31
832.246	92.69
832.495	106.69
832.745	-153.31
832.994	-144.31
833.244	23.69
833.494	-70.31
833.743	-159.31
833.993	-118.31
834.243	-45.31
834.492	-61.31
834.742	-77.31
834.991	-92.31
835.241	83.69
835.49	-80.31
835.74	-210.31
835.99	-123.31
836.239	-20.31
836.489	-5.31
836.738	-93.31
836.988	-195.31
837.237	-86.31
837.487	28.69
837.736	-80.31
837.986	-117.31
838.235	-38.31
838.485	-82.31
838.734	-131.31
838.984	-42.31
839.233	-71.31
839.483	-163.31
839.732	-184.31
839.982	-100.31
840.231	-23.31
840.481	-33.31
840.73	-147.31
840.979	-80.31
841.229	-69.31
841.478	-78.31
841.728	-196.31
841.977	-210.31
842.227	-147.31
842.476	-178.31
842.725	-216.31
842.975	-149.31
843.224	-49.31
843.474	-0.31
843.723	-103.31
843.972	-112.31
844.222	-71.31
844.471	-16.31
844.72	-124.31
844.97	-125.31
845.219	-28.31
845.468	-33.31
845.718	-90.31
845.967	-70.31
846.216	-20.31
846.466	15.69
846.715	-126.31
846.964	-95.31
847.214	-94.31
847.463	-135.31
847.712	-106.31
847.961	-141.31
848.211	-67.31
848.46	-70.31
848.709	-129.31
848.958	-146.31
849.208	-68.31
849.457	-80.31
849.706	-68.31
849.955	-108.31
850.205	-115.31
850.454	10.69
850.703	40.69
850.952	-21.31
851.201	6.69
851.451	-52.31
851.7	-45.31
851.949	-158.31
852.198	-54.31
852.447	-84.31
852.696	-159.31
852.946	-118.31
853.195	-8.31
853.444	-8.31
853.693	-196.31
853.942	-185.31
854.191	-86.31
854.44	-50.31
854.689	-94.31
854.939	-133.31
855.188	-147.31
855.437	-127.31
855.686	-131.31
855.935	-103.31
856.184	-38.31
856.433	3.69
856.682	-59.31
856.931	-52.31
857.18	-39.31
857.429	-120.31
857.678	-160.31
857.927	-98.31
858.176	-60.31
858.425	-125.31
858.674	-195.31
858.924	-90.31
859.173	-83.31
859.422	-58.31
859.671	-191.31
859.92	-111.31
860.169	-62.31
860.417	-29.31
860.666	-105.31
860.915	-152.31
861.164	-97.31
861.413	-138.31
861.662	-204.31
861.911	-161.31
862.16	-25.31
862.409	-52.31
862.658	-204.31
862.907	-158.31
863.156	-27.31
863.405	-40.31
863.654	-175.31
863.903	-201.31
864.151	-111.31
864.4	-69.31
864.649	-132.31
864.898	-85.31
865.147	-37.31
865.396	-9.31
865.645	-152.31
865.894	-85.31
866.142	45.69
866.391	-67.31
866.64	-180.31
866.889	-78.31
867.138	89.69
867.387	-35.31
867.635	-141.31
867.884	-71.31
868.133	22.69
868.382	-64.31
868.631	-189.31
868.879	-164.31
869.128	-54.31
869.377	-60.31
869.626	-125.31
869.874	-118.31
870.123	-33.31
870.372	-72.31
870.621	-188.31
870.869	-158.31
871.118	-35.31
871.367	-48.31
871.616	-159.31
871.864	-67.31
872.113	-16.31
872.362	-51.31
872.61	-113.31
872.859	-62.31
873.108	6.69
873.357	-87.31
873.605	-187.31
873.854	-158.31
874.103	-125.31
874.351	-112.31
874.6	-131.31
874.848	-77.31
875.097	-36.31
875.346	-35.31
875.594	-143.31
875.843	-39.31
876.092	105.69
876.34	-14.31
876.589	-131.31
876.837	-228.31
877.086	-145.31
877.335	-71.31
877.583	-100.31
877.832	-37.31
878.08	68.69
878.329	-58.31
878.578	-133.31
878.826	-101.31
879.075	-32.31
879.323	-23.31
879.572	-106.31
879.82	20.69
880.069	-28.31
880.317	-21.31
880.566	-134.31
880.814	-47.31
881.063	65.69
881.311	-18.31
881.56	4.69
881.808	-92.31
882.057	-19.31
882.305	-46.31
882.554	-34.31
882.802	-131.31
883.051	-87.31
883.299	-62.31
883.548	-104.31
883.796	-20.31
884.045	-15.31
884.293	-85.31
884.541	-209.31
884.79	-213.31
885.038	-89.31
885.287	-96.31
885.535	-68.31
885.783	-52.31
886.032	-104.31
886.28	-130.31
886.529	-173.31
886.777	-114.31
887.025	36.69
887.274	-68.31
887.522	-151.31
887.77	-133.31
888.019	-111.31
888.267	-134.31
888.516	-198.31
888.764	-160.31
889.012	-66.31
889.261	-78.31
889.509	-165.31
889.757	-135.31
890.005	-84.31
890.254	-145.31
890.502	-114.31
890.75	101.69
890.999	95.69
891.247	-7.31
891.495	-49.31
891.743	-86.31
891.992	57.69
892.24	-37.31
892.488	-150.31
892.737	-146.31
892.985	-56.31
893.233	-39.31
893.481	-90.31
893.729	-113.31
893.978	30.69
894.226	46.69
894.474	-102.31
894.722	-120.31
894.97	-85.31
895.219	-106.31
895.467	-76.31
895.715	-44.31
895.963	-66.31
896.211	-123.31
896.46	-211.31
896.708	-93.31
896.956	0.69
897.204	60.69
897.452	-28.31
897.7	-91.31
897.948	-29.31
898.197	-65.31
898.445	-124.31
898.693	-102.31
898.941	-41.31
899.189	-50.31
899.437	-96.31
899.685	-6.31
899.933	-63.31
900.181	-65.31
900.43	-142.31
900.678	-112.31
900.926	-31.31
901.174	-81.31
901.422	-135.31
901.67	-106.31
901.918	-34.31
902.166	-76.31
902.414	-204.31
902.662	-148.31
902.91	-42.31
903.158	-59.31
903.406	-132.31
903.654	-114.31
903.902	-63.31
904.15	-86.31
904.398	-195.31
904.646	-100.31
904.894	-22.31
905.142	-13.31
905.39	-61.31
905.638	-131.31
905.886	-88.31
906.134	-98.31
906.382	-108.31
906.63	-153.31
906.878	-50.31
907.126	-52.31
907.374	-128.31
907.622	-128.31
907.869	-4.31
908.117	-21.31
908.365	-95.31
908.613	-118.31
908.861	-101.31
909.109	-138.31
909.357	-166.31
909.605	-94.31
909.853	-15.31
910.1	-83.31
910.348	-236.31
910.596	-208.31
910.844	-24.31
911.092	18.69
911.34	-96.31
911.588	-77.31
911.835	-23.31
912.083	-49.31
912.331	-76.31
912.579	-40.31
912.827	129.69
913.075	16.69
913.322	-131.31
913.57	-131.31
913.818	8.69
914.066	-52.31
914.313	-124.31
914.561	-52.31
914.809	-20.31
915.057	-88.31
915.305	-107.31
915.552	-102.31
915.8	2.69
916.048	-86.31
916.296	-156.31
916.543	-43.31
916.791	39.69
917.039	-44.31
917.286	-165.31
917.534	-149.31
917.782	-4.31
918.03	-69.31
918.277	-191.31
918.525	-184.31
918.773	-68.31
919.02	-84.31
919.268	-135.31
919.516	-93.31
919.763	-108.31
920.011	-103.31
920.259	-191.31
920.506	-107.31
920.754	8.69
921.002	2.69
921.249	-59.31
921.497	-108.31
921.745	-66.31
921.992	-42.31
922.24	-175.31
922.487	-63.31
922.735	103.69
922.983	13.69
923.23	-87.31
923.478	-119.31
923.725	-43.31
923.973	-37.31
924.221	-65.31
924.468	-10.31
924.716	-33.31
924.963	-67.31
925.211	-125.31
925.458	-54.31
925.706	53.69
925.953	77.69
926.201	-109.31
926.448	-114.31
926.696	-16.31
926.944	-42.31
927.191	-104.31
927.439	-99.31
927.686	-69.31
927.934	-39.31
928.181	-133.31
928.429	-141.31
928.676	-77.31
928.923	-152.31
929.171	-184.31
929.418	-28.31
929.666	29.69
929.913	3.69
930.161	-177.31
930.408	-134.31
930.656	-56.31
930.903	-33.31
931.151	-166.31
931.398	-108.31
931.645	28.69
931.893	-80.31
932.14	-111.31
932.388	-92.31
932.635	43.69
932.882	104.69
933.13	-27.31
933.377	-100.31
933.625	-17.31
933.872	-93.31
934.119	-158.31
934.367	-95.31
934.614	-107.31
934.861	-107.31
935.109	-111.31
935.356	-48.31
935.603	-9.31
935.851	-79.31
936.098	-147.31
936.345	-37.31
936.593	8.69
936.84	-59.31
937.087	-188.31
937.335	-117.31
937.582	-48.31
937.829	-25.31
938.077	-73.31
938.324	-83.31
938.571	-16.31
938.818	-83.31
939.066	-122.31
939.313	-150.31
939.56	-38.31
939.807	-33.31
940.055	-141.31
940.302	-108.31
940.549	54.69
940.796	-18.31
941.044	-96.31
941.291	-88.31
941.538	96.69
941.785	-25.31
942.033	-95.31
942.28	-28.31
942.527	-19.31
942.774	-56.31
943.021	-187.31
943.269	-139.31
943.516	-20.31
943.763	-13.31
944.01	-99.31
944.257	-30.31
944.504	42.69
944.752	2.69
944.999	-36.31
945.246	-128.31
945.493	-47.31
945.74	-58.31
945.987	-125.31
946.234	-50.31
946.482	25.69
946.729	-71.31
946.976	-129.31
947.223	-126.31
947.47	33.69
947.717	4.69
947.964	18.69
948.211	-19.31
948.458	28.69
948.705	-34.31
948.952	-132.31
949.2	-60.31
949.447	67.69
949.694	52.69
949.941	-115.31
950.188	-121.31
950.435	-91.31
950.682	-50.31
950.929	-168.31
951.176	-119.31
951.423	17.69
951.67	12.69
951.917	-28.31
952.164	-26.31
952.411	31.69
952.658	69.69
952.905	-95.31
953.152	-143.31
953.399	-7.31
953.646	-26.31
953.893	-130.31
954.14	-88.31
954.387	-46.31
954.634	-54.31
954.881	-116.31
955.128	-55.31
955.375	-41.31
955.622	-53.31
955.869	-55.31
956.115	-72.31
956.362	1.69
956.609	-22.31
956.856	-100.31
957.103	-92.31
957.35	15.69
957.597	3.69
957.844	-86.31
958.091	-58.31
958.338	7.69
958.585	-56.31
958.831	-213.31
959.078	-131.31
959.325	26.69
959.572	-84.31
959.819	-167.31
960.066	-198.31
960.313	-63.31
960.559	-84.31
960.806	-193.31
961.053	-154.31
961.3	10.69
961.547	38.69
961.794	-172.31
962.04	-8.31
962.287	24.69
962.534	-112.31
962.781	-127.31
963.028	-59.31
963.274	55.69
963.521	-43.31
963.768	-111.31
964.015	-75.31
964.262	70.69
964.508	-90.31
964.755	-171.31
965.002	-134.31
965.249	-91.31
965.495	-148.31
965.742	-167.31
965.989	-150.31
966.236	-10.31
966.482	-97.31
966.729	-164.31
966.976	-164.31
967.222	-84.31
967.469	-72.31
967.716	-146.31
967.963	-148.31
968.209	-60.31
968.456	-97.31
968.703	-202.31
968.949	-104.31
969.196	60.69
969.443	77.69
969.689	-154.31
969.936	-187.31
970.183	-91.31
970.429	-131.31
970.676	-176.31
970.923	-103.31
971.169	-33.31
971.416	-108.31
971.663	-149.31
971.909	-96.31
972.156	-20.31
972.402	-30.31
972.649	-84.31
972.896	-59.31
973.142	-43.31
973.389	-20.31
973.635	-135.31
973.882	-22.31
974.129	48.69
974.375	-86.31
974.622	-174.31
974.868	-158.31
975.115	-77.31
975.361	-114.31
975.608	-141.31
975.855	-20.31
976.101	14.69
976.348	-68.31
976.594	-130.31
976.841	-60.31
977.087	-62.31
977.334	-26.31
977.58	-159.31
977.827	-164.31
978.073	-7.31
978.32	-32.31
978.566	-174.31
978.813	-83.31
979.059	-47.31
979.306	-62.31
979.552	-167.31
979.799	-97.31
980.045	-96.31
980.292	-81.31
980.538	-156.31
980.785	-138.31
981.031	-108.31
981.278	-138.31
981.524	-208.31
981.771	-43.31
982.017	96.69
982.263	8.69
982.51	-148.31
982.756	-72.31
983.003	2.69
983.249	-61.31
983.495	-153.31
983.742	-156.31
983.988	-89.31
984.235	-53.31
984.481	-146.31
984.727	-138.31
984.974	-16.31
985.22	-32.31
985.467	-84.31
985.713	-96.31
985.959	14.69
986.206	-11.31
986.452	-98.31
986.698	-54.31
986.945	-44.31
987.191	1.69
987.437	2.69
987.684	-47.31
987.93	117.69
988.176	14.69
988.423	-174.31
988.669	-89.31
988.915	85.69
989.162	-66.31
989.408	-183.31
989.654	-105.31
989.901	-63.31
990.147	-68.31
990.393	-83.31
990.639	-28.31
990.886	2.69
991.132	49.69
991.378	-1.31
991.625	117.69
991.871	78.69
992.117	4.69
992.363	-48.31
992.61	-15.31
992.856	86.69
993.102	-56.31
993.348	-133.31
993.594	-105.31
993.841	-37.31
994.087	100.69
994.333	-43.31
994.579	-65.31
994.826	-35.31
995.072	-6.31
995.318	-204.31
995.564	-155.31
995.81	-26.31
996.057	-71.31
996.303	-176.31
996.549	-157.31
996.795	-52.31
997.041	-78.31
997.287	-102.31
997.534	-103.31
997.78	-56.31
998.026	-42.31
998.272	-138.31
998.518	-145.31
998.764	-13.31
999.01	14.69
999.256	-74.31
999.503	-123.31
999.749	-101.31
999.995	-135.31
1000.241	-171.31
1000.487	-102.31
1000.733	-41.31
1000.979	-83.31
1001.225	-121.31
1001.471	-50.31
1001.718	0.69
1001.964	40.69
1002.21	-132.31
1002.456	-108.31
1002.702	37.69
1002.948	-48.31
1003.194	-124.31
1003.44	-151.31
1003.686	-62.31
1003.932	-109.31
1004.178	-141.31
1004.424	-75.31
1004.67	51.69
1004.916	21.69
1005.162	-70.31
1005.408	-132.31
1005.654	3.69
1005.9	-143.31
1006.146	-194.31
1006.392	-127.31
1006.638	-52.31
1006.884	-82.31
1007.13	-162.31
1007.376	-183.31
1007.622	-5.31
1007.868	24.69
1008.114	-111.31
1008.36	-43.31
1008.606	-22.31
1008.852	-1.31
1009.098	-65.31
1009.344	-28.31
1009.59	-42.31
1009.836	-167.31
1010.082	-242.31
1010.328	-134.31
1010.574	-39.31
1010.82	-129.31
1011.065	-208.31
1011.311	-184.31
1011.557	-62.31
1011.803	-94.31
1012.049	-164.31
1012.295	-117.31
1012.541	-79.31
1012.787	-80.31
1013.033	-226.31
1013.278	-211.31
1013.524	-63.31
1013.77	10.69
1014.016	-109.31
1014.262	-106.31
1014.508	29.69
1014.754	-139.31
1015	-176.31
1015.245	-10.31
1015.491	19.69
1015.737	-15.31
1015.983	-154.31
1016.229	-180.31
1016.475	-68.31
1016.72	52.69
1016.966	72.69
1017.212	3.69
1017.458	46.69
1017.704	-56.31
1017.949	-176.31
1018.195	-5.31
1018.441	105.69
1018.687	33.69
1018.933	-115.31
1019.178	-111.31
1019.424	58.69
1019.67	57.69
1019.916	-140.31
1020.161	-95.31
1020.407	-28.31
1020.653	-82.31
1020.899	-161.31
1021.144	-86.31
1021.39	3.69
1021.636	-112.31
1021.882	-206.31
1022.127	-87.31
1022.373	65.69
1022.619	0.69
1022.865	-102.31
1023.11	-98.31
1023.356	30.69
1023.602	-42.31
1023.847	-114.31
1024.093	-77.31
1024.339	-93.31
1024.584	-88.31
1024.83	-119.31
1025.076	-109.31
1025.321	8.69
1025.567	-12.31
1025.813	-119.31
1026.058	-37.31
1026.304	49.69
1026.55	-51.31
1026.795	-70.31
1027.041	-64.31
1027.287	-10.31
1027.532	-5.31
1027.778	-46.31
1028.024	-58.31
1028.269	-16.31
1028.515	-110.31
1028.76	-142.31
1029.006	-68.31
1029.252	14.69
1029.497	-61.31
1029.743	-68.31
1029.989	-124.31
1030.234	9.69
1030.48	87.69
1030.725	-111.31
1030.971	-75.31
1031.216	52.69
1031.462	-52.31
1031.708	-174.31
1031.953	-127.31
1032.199	-51.31
1032.444	-45.31
1032.69	-80.31
1032.935	-86.31
1033.181	28.69
1033.426	-96.31
1033.672	-220.31
1033.918	-149.31
1034.163	-50.31
1034.409	-87.31
1034.654	-126.31
1034.9	-34.31
1035.145	17.69
1035.391	-62.31
1035.636	-163.31
1035.882	-76.31
1036.127	-89.31
1036.373	-130.31
1036.618	-221.31
1036.864	-116.31
1037.109	23.69
1037.355	-68.31
1037.6	-150.31
1037.845	-104.31
1038.091	91.69
1038.336	55.69
1038.582	72.69
1038.827	149.69
1039.073	-18.31
1039.318	-115.31
1039.564	-200.31
1039.809	-113.31
1040.055	66.69
1040.3	54.69
1040.545	-114.31
1040.791	-123.31
1041.036	-44.31
1041.282	-5.31
1041.527	45.69
1041.772	-144.31
1042.018	-79.31
1042.263	-31.31
1042.509	-186.31
1042.754	-147.31
1042.999	-26.31
1043.245	-54.31
1043.49	-218.31
1043.736	-158.31
1043.981	-67.31
1044.226	-33.31
1044.472	-61.31
1044.717	-56.31
1044.962	68.69
1045.208	-18.31
1045.453	-258.31
1045.698	-176.31
1045.944	27.69
1046.189	-24.31
1046.434	-112.31
1046.68	-98.31
1046.925	87.69
1047.17	-64.31
1047.416	-240.31
1047.661	-130.31
1047.906	18.69
1048.152	1.69
1048.397	-97.31
1048.642	-112.31
1048.887	67.69
1049.133	71.69
1049.378	-98.31
1049.623	-101.31
1049.869	2.69
1050.114	-74.31
1050.359	-135.31
1050.604	-58.31
1050.85	109.69
1051.095	-46.31
1051.34	-149.31
1051.585	-66.31
1051.831	121.69
1052.076	-23.31
1052.321	-222.31
1052.566	-126.31
1052.812	48.69
1053.057	-30.31
1053.302	-97.31
1053.547	-25.31
1053.792	39.69
1054.038	26.69
1054.283	-158.31
1054.528	-87.31
1054.773	-23.31
1055.018	-27.31
1055.264	-140.31
1055.509	-164.31
1055.754	-40.31
1055.999	-100.31
1056.244	-178.31
1056.49	-102.31
1056.735	-19.31
1056.98	-67.31
1057.225	-177.31
1057.47	8.69
1057.715	-76.31
1057.96	-142.31
1058.206	-165.31
1058.451	-57.31
1058.696	74.69
1058.941	21.69
1059.186	-158.31
1059.431	-144.31
1059.676	62.69
1059.922	-8.31
1060.167	86.69
1060.412	267.69
1060.657	33.69
1060.902	-41.31
1061.147	-214.31
1061.392	-138.31
1061.637	11.69
1061.882	-54.31
1062.127	-199.31
1062.373	-184.31
1062.618	84.69
1062.863	111.69
1063.108	-81.31
1063.353	-139.31
1063.598	-50.31
1063.843	-77.31
1064.088	-142.31
1064.333	-140.31
1064.578	10.69
1064.823	30.69
1065.068	-223.31
1065.313	-149.31
1065.558	14.69
1065.803	6.69
1066.048	-190.31
1066.293	-166.31
1066.538	45.69
1066.783	-25.31
1067.028	-200.31
1067.273	-177.31
1067.518	-2.31
1067.763	-71.31
1068.008	-209.31
1068.253	-120.31
1068.498	50.69
1068.743	-24.31
1068.988	-188.31
1069.233	-159.31
1069.478	40.69
1069.723	79.69
1069.968	-103.31
1070.213	-64.31
1070.458	33.69
1070.703	-58.31
1070.948	-211.31
1071.193	-114.31
1071.438	35.69
1071.683	68.69
1071.928	-72.31
1072.173	-88.31
1072.418	-14.31
1072.663	-42.31
1072.908	-183.31
1073.152	-126.31
1073.397	63.69
1073.642	-55.31
1073.887	-100.31
1074.132	19.69
1074.377	-3.31
1074.622	-26.31
1074.867	-144.31
1075.112	-89.31
1075.357	98.69
1075.601	-37.31
1075.846	-109.31
1076.091	-7.31
1076.336	39.69
1076.581	-92.31
1076.826	-191.31
1077.071	-92.31
1077.315	160.69
1077.56	69.69
1077.805	-144.31
1078.05	-96.31
1078.295	-40.31
1078.54	-65.31
1078.785	-190.31
1079.029	-138.31
1079.274	26.69
1079.519	-96.31
1079.764	-177.31
1080.009	-60.31
1080.253	-4.31
1080.498	-87.31
1080.743	-243.31
1080.988	-103.31
1081.233	124.69
1081.478	71.69
1081.722	-138.31
1081.967	-28.31
1082.212	127.69
1082.457	21.69
1082.701	-113.31
1082.946	-106.31
1083.191	39.69
1083.436	-71.31
1083.681	-219.31
1083.925	-111.31
1084.17	-27.31
1084.415	5.69
1084.66	-205.31
1084.904	-108.31
1085.149	-8.31
1085.394	-48.31
1085.639	-244.31
1085.883	-122.31
1086.128	133.69
1086.373	144.69
1086.617	-75.31
1086.862	-147.31
1087.107	-20.31
1087.352	-80.31
1087.596	-168.31
1087.841	-40.31
1088.086	13.69
1088.33	-0.31
1088.575	-242.31
1088.82	-124.31
1089.064	54.69
1089.309	-78.31
1089.554	-203.31
1089.798	-163.31
1090.043	15.69
1090.288	-25.31
1090.533	-202.31
1090.777	-125.31
1091.022	8.69
1091.266	34.69
1091.511	-127.31
1091.756	-51.31
1092	105.69
1092.245	87.69
1092.49	-158.31
1092.734	-119.31
1092.979	60.69
1093.224	-42.31
1093.468	-184.31
1093.713	-131.31
1093.957	7.69
1094.202	-56.31
1094.447	-221.31
1094.691	-98.31
1094.936	49.69
1095.181	11.69
1095.425	-176.31
1095.67	-158.31
1095.914	13.69
1096.159	-11.31
1096.403	-157.31
1096.648	-63.31
1096.893	61.69
1097.137	-73.31
1097.382	-220.31
1097.626	-142.31
1097.871	20.69
1098.115	-36.31
1098.36	-207.31
1098.605	-123.31
1098.849	-52.31
1099.094	-106.31
1099.338	-187.31
1099.583	-93.31
1099.827	142.69
1100.072	42.69
1100.316	-167.31
1100.561	-110.31
1100.805	51.69
1101.05	18.69
1101.294	-174.31
1101.539	-154.31
1101.783	6.69
1102.028	-2.31
1102.273	-141.31
1102.517	-72.31
1102.761	35.69
1103.006	-77.31
1103.25	-267.31
1103.495	-170.31
1103.739	42.69
1103.984	93.69
1104.228	-105.31
1104.473	-39.31
1104.717	23.69
1104.962	1.69
1105.206	-123.31
1105.451	-150.31
1105.695	12.69
1105.94	1.69
1106.184	-135.31
1106.429	-96.31
1106.673	11.69
1106.917	73.69
1107.162	-150.31
1107.406	-13.31
1107.651	135.69
1107.895	-71.31
1108.14	-188.31
1108.384	-106.31
1108.628	111.69
1108.873	111.69
1109.117	-141.31
1109.362	-136.31
1109.606	-30.31
1109.85	-21.31
1110.095	-160.31
1110.339	-106.31
1110.584	77.69
1110.828	26.69
1111.072	-95.31
1111.317	-122.31
1111.561	-13.31
1111.806	-35.31
1112.05	-175.31
1112.294	-75.31
1112.539	41.69
1112.783	-26.31
1113.027	-128.31
1113.272	-117.31
1113.516	-29.31
1113.76	-46.31
1114.005	-159.31
1114.249	-97.31
1114.493	71.69
1114.738	100.69
1114.982	-36.31
1115.226	-80.31
1115.471	10.69
1115.715	-9.31
1115.959	-190.31
1116.204	-166.31
1116.448	10.69
1116.692	-96.31
1116.937	-173.31
1117.181	-7.31
1117.425	-3.31
1117.67	-84.31
1117.914	-154.31
1118.158	-87.31
1118.402	130.69
1118.647	50.69
1118.891	-87.31
1119.135	-34.31
1119.38	104.69
1119.624	25.69
1119.868	-139.31
1120.112	-156.31
1120.357	-61.31
1120.601	-120.31
1120.845	-220.31
1121.089	-136.31
1121.334	54.69
