Data from HR4C21111__39__10-12-08-369.txt Node

Date: Mon Feb 22 10:12:08 IST 2021
User: Kapil
Spectrometer: HR4C2111
Trigger mode: 4
Integration Time (sec): 2.300000E0
Scans to average: 1
Electric dark correction enabled: true
Nonlinearity correction enabled: false
Boxcar width: 0
XAxis mode: Wavelengths
Number of Pixels in Spectrum: 3648
>>>>>Begin Spectral Data<<<<<
189.472	-444.38
189.745	-444.38
190.017	-444.38
190.289	-463.38
190.561	-303.38
190.834	-30.38
191.106	-116.38
191.378	18.62
191.65	12.62
191.923	-152.38
192.195	-104.38
192.467	130.62
192.739	99.62
193.011	-21.38
193.284	89.62
193.556	166.62
193.828	-10.38
194.1	-82.38
194.372	-105.38
194.644	53.62
194.916	62.62
195.188	-149.38
195.46	-84.38
195.732	57.62
196.004	-20.38
196.276	-119.38
196.548	-66.38
196.82	77.62
197.092	76.62
197.364	-139.38
197.636	-78.38
197.908	32.62
198.18	-40.38
198.452	-79.38
198.724	-36.38
198.996	64.62
199.268	85.62
199.54	-32.38
199.811	-109.38
200.083	112.62
200.355	23.62
200.627	-194.38
200.899	-59.38
201.171	51.62
201.442	-63.38
201.714	-174.38
201.986	-89.38
202.258	66.62
202.529	115.62
202.801	7.62
203.073	71.62
203.345	200.62
203.616	22.62
203.888	-136.38
204.16	-144.38
204.431	86.62
204.703	-2.38
204.974	-143.38
205.246	0.62
205.518	197.62
205.789	2.62
206.061	-124.38
206.332	-94.38
206.604	14.62
206.876	104.62
207.147	132.62
207.419	16.62
207.69	145.62
207.962	-23.38
208.233	-172.38
208.505	6.62
208.776	191.62
209.047	105.62
209.319	-114.38
209.59	-88.38
209.862	120.62
210.133	40.62
210.404	-138.38
210.676	-92.38
210.947	82.62
211.219	78.62
211.49	-117.38
211.761	-51.38
212.033	24.62
212.304	-40.38
212.575	-187.38
212.846	-82.38
213.118	26.62
213.389	-57.38
213.66	-112.38
213.931	-47.38
214.203	41.62
214.474	-44.38
214.745	-123.38
215.016	135.62
215.287	425.62
215.559	77.62
215.83	-112.38
216.101	-67.38
216.372	13.62
216.643	68.62
216.914	6.62
217.185	-77.38
217.456	162.62
217.727	26.62
217.998	-153.38
218.269	-54.38
218.54	32.62
218.811	-13.38
219.082	-108.38
219.353	-87.38
219.624	-18.38
219.895	-31.38
220.166	-130.38
220.437	-105.38
220.708	102.62
220.979	-1.38
221.25	-142.38
221.521	-84.38
221.792	42.62
222.063	76.62
222.334	37.62
222.604	206.62
222.875	177.62
223.146	95.62
223.417	-177.38
223.688	-26.38
223.958	107.62
224.229	-64.38
224.5	-208.38
224.771	-93.38
225.041	64.62
225.312	43.62
225.583	-106.38
225.854	-47.38
226.124	100.62
226.395	-3.38
226.666	-122.38
226.936	-94.38
227.207	51.62
227.478	-60.38
227.748	-115.38
228.019	57.62
228.289	258.62
228.56	-22.38
228.831	-35.38
229.101	59.62
229.372	66.62
229.642	-10.38
229.913	-164.38
230.183	-124.38
230.454	-0.38
230.724	3.62
230.995	-95.38
231.265	-59.38
231.536	59.62
231.806	30.62
232.076	-122.38
232.347	-129.38
232.617	24.62
232.888	32.62
233.158	-59.38
233.428	-121.38
233.699	-3.38
233.969	-49.38
234.239	-156.38
234.51	-88.38
234.78	54.62
235.05	-17.38
235.321	-109.38
235.591	-73.38
235.861	39.62
236.131	-58.38
236.402	-196.38
236.672	-87.38
236.942	60.62
237.212	65.62
237.483	-56.38
237.753	4.62
238.023	171.62
238.293	23.62
238.563	-78.38
238.833	-104.38
239.103	61.62
239.374	-19.38
239.644	-136.38
239.914	-23.38
240.184	127.62
240.454	-6.38
240.724	-163.38
240.994	-45.38
241.264	32.62
241.534	73.62
241.804	-4.38
242.074	-72.38
242.344	-22.38
242.614	-50.38
242.884	-187.38
243.154	-124.38
243.424	47.62
243.694	69.62
243.964	-99.38
244.234	-65.38
244.503	122.62
244.773	-1.38
245.043	-225.38
245.313	-127.38
245.583	137.62
245.853	87.62
246.123	-171.38
246.392	-117.38
246.662	-14.38
246.932	-29.38
247.202	-175.38
247.471	-75.38
247.741	232.62
248.011	87.62
248.281	-126.38
248.55	-85.38
248.82	57.62
249.09	-0.38
249.359	-89.38
249.629	-54.38
249.899	66.62
250.168	78.62
250.438	-5.38
250.708	-100.38
250.977	91.62
251.247	70.62
251.516	-89.38
251.786	-42.38
252.055	134.62
252.325	20.62
252.595	-93.38
252.864	-42.38
253.134	67.62
253.403	-19.38
253.673	-174.38
253.942	-105.38
254.212	46.62
254.481	2.62
254.75	-134.38
255.02	-81.38
255.289	91.62
255.559	-9.38
255.828	-133.38
256.097	-23.38
256.367	33.62
256.636	-49.38
256.906	-129.38
257.175	-15.38
257.444	245.62
257.714	56.62
257.983	-81.38
258.252	-36.38
258.521	7.62
258.791	37.62
259.06	-107.38
259.329	-49.38
259.598	48.62
259.868	-7.38
260.137	-135.38
260.406	-18.38
260.675	93.62
260.944	36.62
261.214	-115.38
261.483	-52.38
261.752	191.62
262.021	22.62
262.29	-155.38
262.559	-116.38
262.828	12.62
263.097	-52.38
263.366	-210.38
263.635	-100.38
263.905	129.62
264.174	14.62
264.443	-206.38
264.712	-118.38
264.981	38.62
265.25	-35.38
265.519	-138.38
265.788	-133.38
266.057	43.62
266.325	65.62
266.594	-41.38
266.863	-117.38
267.132	30.62
267.401	3.62
267.67	-195.38
267.939	-150.38
268.208	31.62
268.477	85.62
268.745	-111.38
269.014	-87.38
269.283	138.62
269.552	45.62
269.821	-113.38
270.089	-10.38
270.358	-1.38
270.627	-20.38
270.896	-138.38
271.164	-159.38
271.433	28.62
271.702	108.62
271.971	-128.38
272.239	-131.38
272.508	10.62
272.777	-45.38
273.045	-44.38
273.314	-25.38
273.583	104.62
273.851	-17.38
274.12	-163.38
274.388	-132.38
274.657	-1.38
274.926	-8.38
275.194	-148.38
275.463	-54.38
275.731	24.62
276	157.62
276.268	346.62
276.537	-83.38
276.805	31.62
277.074	36.62
277.342	-177.38
277.611	-107.38
277.879	92.62
278.148	38.62
278.416	-151.38
278.684	-126.38
278.953	-13.38
279.221	-31.38
279.49	-204.38
279.758	-95.38
280.026	-16.38
280.295	-6.38
280.563	-115.38
280.831	747.62
281.1	1876.62
281.368	187.62
281.636	-104.38
281.904	-125.38
282.173	-10.38
282.441	-59.38
282.709	-94.38
282.977	26.62
283.246	40.62
283.514	-48.38
283.782	-79.38
284.05	14.62
284.318	66.62
284.587	-23.38
284.855	-133.38
285.123	-51.38
285.391	68.62
285.659	33.62
285.927	-143.38
286.195	-65.38
286.463	51.62
286.732	-15.38
287	-141.38
287.268	-68.38
287.536	25.62
287.804	-43.38
288.072	-145.38
288.34	-103.38
288.608	46.62
288.876	-39.38
289.144	-134.38
289.412	-3.38
289.68	58.62
289.948	-30.38
290.215	-106.38
290.483	-100.38
290.751	88.62
291.019	87.62
291.287	-178.38
291.555	-128.38
291.823	23.62
292.091	-12.38
292.358	-74.38
292.626	-24.38
292.894	76.62
293.162	49.62
293.43	-120.38
293.697	-92.38
293.965	51.62
294.233	-27.38
294.501	-163.38
294.768	-72.38
295.036	71.62
295.304	44.62
295.572	-158.38
295.839	-114.38
296.107	120.62
296.375	-2.38
296.642	-136.38
296.91	-128.38
297.178	42.62
297.445	171.62
297.713	100.62
297.98	-81.38
298.248	-40.38
298.516	-50.38
298.783	-123.38
299.051	-132.38
299.318	11.62
299.586	-32.38
299.853	-87.38
300.121	-87.38
300.388	40.62
300.656	-20.38
300.923	-161.38
301.191	-45.38
301.458	30.62
301.726	-27.38
301.993	-152.38
302.26	-94.38
302.528	44.62
302.795	-1.38
303.063	-79.38
303.33	-62.38
303.597	33.62
303.865	15.62
304.132	-128.38
304.399	-124.38
304.667	-25.38
304.934	7.62
305.201	-112.38
305.469	-26.38
305.736	53.62
306.003	41.62
306.27	-49.38
306.538	-89.38
306.805	-9.38
307.072	-11.38
307.339	-76.38
307.606	-58.38
307.874	154.62
308.141	63.62
308.408	-142.38
308.675	-110.38
308.942	-49.38
309.209	-69.38
309.477	-125.38
309.744	-98.38
310.011	19.62
310.278	29.62
310.545	-20.38
310.812	-52.38
311.079	140.62
311.346	212.62
311.613	84.62
311.88	-34.38
312.147	-69.38
312.414	-46.38
312.681	-116.38
312.948	-33.38
313.215	107.62
313.482	81.62
313.749	-90.38
314.016	-202.38
314.283	-62.38
314.55	52.62
314.817	-118.38
315.083	-134.38
315.35	-90.38
315.617	-145.38
315.884	-156.38
316.151	56.62
316.418	157.62
316.684	-23.38
316.951	-189.38
317.218	-115.38
317.485	-14.38
317.752	-73.38
318.018	-133.38
318.285	-24.38
318.552	4.62
318.819	-53.38
319.085	-134.38
319.352	-47.38
319.619	32.62
319.885	-20.38
320.152	-196.38
320.419	-109.38
320.685	16.62
320.952	-35.38
321.219	-78.38
321.485	66.62
321.752	4.62
322.019	-59.38
322.285	26.62
322.552	-9.38
322.818	130.62
323.085	-25.38
323.351	-143.38
323.618	-25.38
323.884	39.62
324.151	-71.38
324.417	-42.38
324.684	-82.38
324.95	-62.38
325.217	-139.38
325.483	-179.38
325.75	-29.38
326.016	8.62
326.283	-29.38
326.549	-188.38
326.815	-55.38
327.082	110.62
327.348	6.62
327.615	-117.38
327.881	-32.38
328.147	121.62
328.414	127.62
328.68	-3.38
328.946	-55.38
329.212	14.62
329.479	0.62
329.745	-133.38
330.011	-118.38
330.278	7.62
330.544	-40.38
330.81	-30.38
331.076	-37.38
331.342	-38.38
331.609	-33.38
331.875	-94.38
332.141	-99.38
332.407	23.62
332.673	-8.38
332.94	-26.38
333.206	-44.38
333.472	54.62
333.738	78.62
334.004	-126.38
334.27	-39.38
334.536	-12.38
334.802	-50.38
335.068	-116.38
335.334	-2.38
335.6	30.62
335.866	-27.38
336.132	-164.38
336.398	-87.38
336.664	-33.38
336.93	-62.38
337.196	-91.38
337.462	-26.38
337.728	20.62
337.994	-57.38
338.26	-107.38
338.526	-40.38
338.792	-63.38
339.058	-69.38
339.324	-161.38
339.59	-17.38
339.856	62.62
340.121	-59.38
340.387	-131.38
340.653	63.62
340.919	142.62
341.185	52.62
341.45	-75.38
341.716	9.62
341.982	104.62
342.248	-65.38
342.514	-97.38
342.779	-20.38
343.045	18.62
343.311	-9.38
343.576	-96.38
343.842	-48.38
344.108	118.62
344.374	8.62
344.639	-113.38
344.905	-108.38
345.171	25.62
345.436	-77.38
345.702	-106.38
345.967	40.62
346.233	77.62
346.499	3.62
346.764	-188.38
347.03	-95.38
347.295	-44.38
347.561	-11.38
347.826	-57.38
348.092	-122.38
348.357	-32.38
348.623	-33.38
348.888	-128.38
349.154	-104.38
349.419	43.62
349.685	-7.38
349.95	-96.38
350.216	-73.38
350.481	23.62
350.747	-54.38
351.012	-189.38
351.277	-133.38
351.543	17.62
351.808	-34.38
352.074	-190.38
352.339	-152.38
352.604	9.62
352.87	-11.38
353.135	-142.38
353.4	-92.38
353.666	-23.38
353.931	-40.38
354.196	-160.38
354.461	-147.38
354.727	5.62
354.992	-27.38
355.257	-165.38
355.522	-69.38
355.788	-26.38
356.053	38.62
356.318	-115.38
356.583	-132.38
356.848	76.62
357.113	196.62
357.379	-77.38
357.644	-110.38
357.909	78.62
358.174	98.62
358.439	-163.38
358.704	-100.38
358.969	24.62
359.234	27.62
359.499	-156.38
359.765	-78.38
360.03	33.62
360.295	26.62
360.56	-135.38
360.825	-66.38
361.09	147.62
361.355	-53.38
361.62	-99.38
361.885	-81.38
362.15	-84.38
362.415	-62.38
362.679	-145.38
362.944	1.62
363.209	20.62
363.474	33.62
363.739	-37.38
364.004	-121.38
364.269	-61.38
364.534	-37.38
364.799	-82.38
365.063	-62.38
365.328	47.62
365.593	25.62
365.858	-96.38
366.123	-103.38
366.387	39.62
366.652	-48.38
366.917	-162.38
367.182	-107.38
367.447	46.62
367.711	2.62
367.976	-70.38
368.241	1.62
368.505	49.62
368.77	-59.38
369.035	-64.38
369.299	-24.38
369.564	8.62
369.829	-76.38
370.093	-107.38
370.358	-117.38
370.623	-8.38
370.887	5.62
371.152	-142.38
371.416	-75.38
371.681	-38.38
371.946	-134.38
372.21	-183.38
372.475	-47.38
372.739	-8.38
373.004	-64.38
373.268	-93.38
373.533	-42.38
373.797	9.62
374.062	-2.38
374.326	-162.38
374.591	-73.38
374.855	8.62
375.12	-69.38
375.384	-223.38
375.648	-144.38
375.913	1.62
376.177	6.62
376.442	-124.38
376.706	-106.38
376.97	21.62
377.235	-22.38
377.499	-75.38
377.763	-70.38
378.028	-73.38
378.292	-37.38
378.556	-124.38
378.821	-193.38
379.085	-89.38
379.349	-176.38
379.614	-237.38
379.878	-115.38
380.142	73.62
380.406	-27.38
380.671	-54.38
380.935	78.62
381.199	166.62
381.463	40.62
381.727	-18.38
381.991	-61.38
382.256	6.62
382.52	-46.38
382.784	-42.38
383.048	77.62
383.312	14.62
383.576	-28.38
383.84	-143.38
384.104	-94.38
384.369	-18.38
384.633	-125.38
384.897	-223.38
385.161	-108.38
385.425	-0.38
385.689	-67.38
385.953	-120.38
386.217	-139.38
386.481	-41.38
386.745	-29.38
387.009	-76.38
387.273	-122.38
387.537	-67.38
387.801	-56.38
388.064	-125.38
388.328	-37.38
388.592	11.62
388.856	-57.38
389.12	-128.38
389.384	-68.38
389.648	-20.38
389.912	48.62
390.176	32.62
390.439	127.62
390.703	-48.38
390.967	-83.38
391.231	-175.38
391.495	-116.38
391.758	-52.38
392.022	-30.38
392.286	-173.38
392.55	-137.38
392.813	-22.38
393.077	25.62
393.341	-67.38
393.605	8.62
393.868	-12.38
394.132	-42.38
394.396	-80.38
394.659	35.62
394.923	-17.38
395.187	-85.38
395.45	-98.38
395.714	-40.38
395.978	-38.38
396.241	-29.38
396.505	-86.38
396.768	-43.38
397.032	11.62
397.295	-1.38
397.559	-79.38
397.823	-114.38
398.086	21.62
398.35	-52.38
398.613	-171.38
398.877	-32.38
399.14	95.62
399.404	89.62
399.667	-11.38
399.931	-101.38
400.194	-7.38
400.457	-33.38
400.721	-57.38
400.984	41.62
401.248	-13.38
401.511	-62.38
401.775	-177.38
402.038	-117.38
402.301	70.62
402.565	9.62
402.828	-197.38
403.091	-109.38
403.355	5.62
403.618	-12.38
403.881	-13.38
404.145	-46.38
404.408	23.62
404.671	-42.38
404.934	-37.38
405.198	-7.38
405.461	7.62
405.724	29.62
405.987	-18.38
406.251	13.62
406.514	105.62
406.777	-34.38
407.04	-122.38
407.303	-114.38
407.567	14.62
407.83	85.62
408.093	-132.38
408.356	-40.38
408.619	34.62
408.882	87.62
409.145	-18.38
409.408	-56.38
409.672	42.62
409.935	-27.38
410.198	-151.38
410.461	-54.38
410.724	104.62
410.987	-10.38
411.25	-155.38
411.513	-36.38
411.776	40.62
412.039	-78.38
412.302	-139.38
412.565	-110.38
412.828	-53.38
413.091	-68.38
413.354	-141.38
413.617	-106.38
413.879	-36.38
414.142	-13.38
414.405	-153.38
414.668	-84.38
414.931	38.62
415.194	13.62
415.457	-143.38
415.72	-73.38
415.983	-16.38
416.245	-8.38
416.508	-106.38
416.771	-146.38
417.034	12.62
417.297	11.62
417.559	-32.38
417.822	-57.38
418.085	24.62
418.348	4.62
418.61	-153.38
418.873	-124.38
419.136	-62.38
419.399	-97.38
419.661	-81.38
419.924	-109.38
420.187	-12.38
420.449	-38.38
420.712	-108.38
420.975	-144.38
421.237	-38.38
421.5	-43.38
421.762	-9.38
422.025	16.62
422.288	55.62
422.55	-110.38
422.813	-193.38
423.075	-114.38
423.338	-45.38
423.601	-19.38
423.863	-45.38
424.126	-49.38
424.388	46.62
424.651	-5.38
424.913	-87.38
425.176	-88.38
425.438	-48.38
425.701	26.62
425.963	-112.38
426.225	-157.38
426.488	-62.38
426.75	-68.38
427.013	-143.38
427.275	-111.38
427.538	-57.38
427.8	-64.38
428.062	-135.38
428.325	-60.38
428.587	29.62
428.849	-28.38
429.112	-95.38
429.374	-120.38
429.636	-58.38
429.899	26.62
430.161	-99.38
430.423	-63.38
430.686	39.62
430.948	0.62
431.21	-134.38
431.472	-145.38
431.735	-61.38
431.997	-96.38
432.259	-40.38
432.521	-107.38
432.783	-14.38
433.046	-37.38
433.308	-141.38
433.57	-92.38
433.832	121.62
434.094	-60.38
434.356	-186.38
434.618	-88.38
434.881	-24.38
435.143	-76.38
435.405	-65.38
435.667	-23.38
435.929	-14.38
436.191	-57.38
436.453	-152.38
436.715	-72.38
436.977	-11.38
437.239	-48.38
437.501	-167.38
437.763	-127.38
438.025	-0.38
438.287	-16.38
438.549	-116.38
438.811	-79.38
439.073	-42.38
439.335	-108.38
439.597	-112.38
439.859	-42.38
440.121	55.62
440.383	-122.38
440.645	-128.38
440.907	-46.38
441.168	-7.38
441.43	-76.38
441.692	-163.38
441.954	-109.38
442.216	-42.38
442.478	-71.38
442.74	-184.38
443.001	-82.38
443.263	60.62
443.525	19.62
443.787	-117.38
444.048	-96.38
444.31	-80.38
444.572	-82.38
444.834	-104.38
445.095	-93.38
445.357	35.62
445.619	-4.38
445.881	-218.38
446.142	-126.38
446.404	-62.38
446.666	-54.38
446.927	-116.38
447.189	-2.38
447.451	39.62
447.712	-19.38
447.974	-225.38
448.235	-177.38
448.497	-37.38
448.759	-124.38
449.02	-175.38
449.282	-177.38
449.543	-21.38
449.805	42.62
450.066	-196.38
450.328	-77.38
450.59	117.62
450.851	-27.38
451.113	-62.38
451.374	-150.38
451.636	-21.38
451.897	17.62
452.158	-51.38
452.42	47.62
452.681	58.62
452.943	-109.38
453.204	-186.38
453.466	-174.38
453.727	-98.38
453.988	-59.38
454.25	-160.38
454.511	-173.38
454.773	-66.38
455.034	74.62
455.295	-149.38
455.557	-157.38
455.818	-62.38
456.079	-43.38
456.341	57.62
456.602	38.62
456.863	27.62
457.124	-47.38
457.386	-167.38
457.647	-175.38
457.908	-63.38
458.169	28.62
458.431	-153.38
458.692	-168.38
458.953	-61.38
459.214	-96.38
459.476	-91.38
459.737	-11.38
459.998	31.62
460.259	-73.38
460.52	-173.38
460.781	-108.38
461.043	40.62
461.304	-81.38
461.565	-194.38
461.826	-148.38
462.087	-51.38
462.348	-4.38
462.609	-127.38
462.87	-65.38
463.131	-90.38
463.392	-27.38
463.653	-97.38
463.914	-74.38
464.175	-34.38
464.436	-84.38
464.697	-147.38
464.958	-123.38
465.219	-25.38
465.48	-52.38
465.741	-61.38
466.002	-108.38
466.263	-53.38
466.524	-59.38
466.785	-137.38
467.046	-112.38
467.307	-25.38
467.568	-98.38
467.829	-113.38
468.089	-65.38
468.35	-8.38
468.611	-78.38
468.872	-158.38
469.133	-49.38
469.394	23.62
469.655	68.62
469.915	-106.38
470.176	-177.38
470.437	-126.38
470.698	-46.38
470.958	-109.38
471.219	-152.38
471.48	-81.38
471.741	-102.38
472.001	-171.38
472.262	-128.38
472.523	-2.38
472.784	31.62
473.044	-94.38
473.305	-67.38
473.566	29.62
473.826	-3.38
474.087	-112.38
474.348	-96.38
474.608	-34.38
474.869	-3.38
475.129	-126.38
475.39	-151.38
475.651	-50.38
475.911	-11.38
476.172	-169.38
476.432	-61.38
476.693	92.62
476.953	-12.38
477.214	-25.38
477.475	-16.38
477.735	10.62
477.996	12.62
478.256	-187.38
478.517	-147.38
478.777	-45.38
479.038	30.62
479.298	2.62
479.558	-83.38
479.819	60.62
480.079	64.62
480.34	-28.38
480.6	-105.38
480.861	-12.38
481.121	-33.38
481.381	-132.38
481.642	-66.38
481.902	-49.38
482.162	-103.38
482.423	-93.38
482.683	-20.38
482.943	11.62
483.204	-73.38
483.464	-102.38
483.724	-85.38
483.985	-40.38
484.245	-3.38
484.505	-83.38
484.765	-9.38
485.026	53.62
485.286	43.62
485.546	-57.38
485.806	7.62
486.067	21.62
486.327	-95.38
486.587	-162.38
486.847	-148.38
487.107	-33.38
487.368	-19.38
487.628	-77.38
487.888	-64.38
488.148	0.62
488.408	-76.38
488.668	-60.38
488.928	-17.38
489.188	-17.38
489.449	89.62
489.709	-67.38
489.969	-78.38
490.229	24.62
490.489	-5.38
490.749	-94.38
491.009	-173.38
491.269	-90.38
491.529	-67.38
491.789	-148.38
492.049	-66.38
492.309	23.62
492.569	-81.38
492.829	-96.38
493.089	-103.38
493.349	37.62
493.609	-45.38
493.869	-137.38
494.129	-60.38
494.389	55.62
494.648	-69.38
494.908	-175.38
495.168	-95.38
495.428	39.62
495.688	-24.38
495.948	-187.38
496.208	-165.38
496.467	-92.38
496.727	-45.38
496.987	-63.38
497.247	-78.38
497.507	-1.38
497.767	27.62
498.026	-152.38
498.286	-50.38
498.546	146.62
498.806	30.62
499.065	65.62
499.325	-24.38
499.585	-42.38
499.845	-38.38
500.104	-40.38
500.364	71.62
500.624	21.62
500.883	-54.38
501.143	-39.38
501.403	14.62
501.662	97.62
501.922	14.62
502.182	-136.38
502.441	-140.38
502.701	-65.38
502.96	42.62
503.22	-42.38
503.48	-79.38
503.739	-12.38
503.999	-61.38
504.258	-120.38
504.518	-57.38
504.777	29.62
505.037	-27.38
505.296	-104.38
505.556	-101.38
505.815	60.62
506.075	128.62
506.334	14.62
506.594	-143.38
506.853	-92.38
507.113	-82.38
507.372	-218.38
507.632	-138.38
507.891	-40.38
508.151	-5.38
508.41	-155.38
508.669	-104.38
508.929	34.62
509.188	-36.38
509.447	-96.38
509.707	-113.38
509.966	-31.38
510.226	-19.38
510.485	-50.38
510.744	-45.38
511.004	19.62
511.263	-76.38
511.522	-134.38
511.781	-108.38
512.041	18.62
512.3	-40.38
512.559	7.62
512.818	26.62
513.078	7.62
513.337	-17.38
513.596	-80.38
513.855	-89.38
514.115	30.62
514.374	-23.38
514.633	-135.38
514.892	-160.38
515.151	-14.38
515.41	39.62
515.67	-67.38
515.929	-120.38
516.188	-14.38
516.447	-54.38
516.706	-141.38
516.965	-109.38
517.224	-61.38
517.483	-79.38
517.743	-118.38
518.002	-70.38
518.261	30.62
518.52	-19.38
518.779	-121.38
519.038	-111.38
519.297	-61.38
519.556	-76.38
519.815	-172.38
520.074	-160.38
520.333	-59.38
520.592	-63.38
520.851	-154.38
521.11	-36.38
521.369	104.62
521.628	-80.38
521.887	-159.38
522.145	-86.38
522.404	-34.38
522.663	-44.38
522.922	-184.38
523.181	-167.38
523.44	-32.38
523.699	-5.38
523.958	-165.38
524.217	-146.38
524.475	-113.38
524.734	-152.38
524.993	-166.38
525.252	-92.38
525.511	-14.38
525.769	-82.38
526.028	-151.38
526.287	-84.38
526.546	-14.38
526.805	-44.38
527.063	-142.38
527.322	-162.38
527.581	-56.38
527.839	-52.38
528.098	-68.38
528.357	-48.38
528.616	-37.38
528.874	-62.38
529.133	-105.38
529.392	-48.38
529.65	-4.38
529.909	-35.38
530.168	-148.38
530.426	-108.38
530.685	34.62
530.943	-10.38
531.202	-128.38
531.461	-138.38
531.719	5.62
531.978	-58.38
532.236	-138.38
532.495	-57.38
532.753	-3.38
533.012	-67.38
533.271	-145.38
533.529	-158.38
533.788	-66.38
534.046	-151.38
534.305	-182.38
534.563	42.62
534.822	97.62
535.08	-15.38
535.338	-113.38
535.597	-77.38
535.855	23.62
536.114	-44.38
536.372	-157.38
536.631	-81.38
536.889	22.62
537.147	-23.38
537.406	-188.38
537.664	-76.38
537.923	-22.38
538.181	-12.38
538.439	-157.38
538.698	-25.38
538.956	-31.38
539.214	-69.38
539.473	-112.38
539.731	-54.38
539.989	4.62
540.248	-54.38
540.506	-130.38
540.764	-125.38
541.022	-10.38
541.281	5.62
541.539	-110.38
541.797	-152.38
542.055	-32.38
542.314	43.62
542.572	3.62
542.83	-128.38
543.088	-1.38
543.346	-50.38
543.604	-166.38
543.863	-76.38
544.121	66.62
544.379	-20.38
544.637	-125.38
544.895	-11.38
545.153	117.62
545.411	-49.38
545.67	-221.38
545.928	-176.38
546.186	-27.38
546.444	18.62
546.702	-70.38
546.96	-26.38
547.218	29.62
547.476	-43.38
547.734	-149.38
547.992	-83.38
548.25	30.62
548.508	-54.38
548.766	-96.38
549.024	-90.38
549.282	-66.38
549.54	-59.38
549.798	-76.38
550.056	-98.38
550.314	2.62
550.572	-38.38
550.83	-173.38
551.088	-83.38
551.346	39.62
551.603	21.62
551.861	-132.38
552.119	-28.38
552.377	77.62
552.635	-38.38
552.893	-169.38
553.151	-171.38
553.409	-32.38
553.666	-32.38
553.924	-132.38
554.182	-141.38
554.44	-6.38
554.698	70.62
554.955	-85.38
555.213	-88.38
555.471	14.62
555.729	-27.38
555.986	-207.38
556.244	-102.38
556.502	101.62
556.76	-31.38
557.017	-104.38
557.275	-59.38
557.533	73.62
557.79	31.62
558.048	-145.38
558.306	-66.38
558.563	32.62
558.821	-89.38
559.079	-138.38
559.336	-97.38
559.594	-36.38
559.852	-114.38
560.109	-159.38
560.367	-59.38
560.624	1.62
560.882	-54.38
561.14	-75.38
561.397	45.62
561.655	-42.38
561.912	-12.38
562.17	-155.38
562.427	-89.38
562.685	-25.38
562.942	-21.38
563.2	-136.38
563.457	-66.38
563.715	0.62
563.972	38.62
564.23	-145.38
564.487	-158.38
564.745	-16.38
565.002	22.62
565.26	-82.38
565.517	-81.38
565.774	-10.38
566.032	11.62
566.289	-66.38
566.547	-33.38
566.804	94.62
567.061	50.62
567.319	-77.38
567.576	23.62
567.833	178.62
568.091	227.62
568.348	62.62
568.605	113.62
568.863	178.62
569.12	187.62
569.377	114.62
569.635	135.62
569.892	217.62
570.149	218.62
570.406	137.62
570.664	221.62
570.921	409.62
571.178	374.62
571.435	455.62
571.693	516.62
571.95	658.62
572.207	665.62
572.464	702.62
572.721	850.62
572.979	1025.62
573.236	1042.62
573.493	1021.62
573.75	1151.62
574.007	1359.62
574.264	1358.62
574.521	1413.62
574.779	1539.62
575.036	1727.62
575.293	1803.62
575.55	1847.62
575.807	2005.62
576.064	2234.62
576.321	2315.62
576.578	2292.62
576.835	2439.62
577.092	2792.62
577.349	2865.62
577.606	2788.62
577.863	2972.62
578.12	3223.62
578.377	3320.62
578.634	3221.62
578.891	3415.62
579.148	3662.62
579.405	3730.62
579.662	3737.62
579.919	3908.62
580.176	4047.62
580.433	4166.62
580.69	4203.62
580.947	4332.62
581.204	4530.62
581.461	4561.62
581.717	4535.62
581.974	4769.62
582.231	4832.62
582.488	4795.62
582.745	4754.62
583.002	4869.62
583.259	5125.62
583.515	5139.62
583.772	5003.62
584.029	5084.62
584.286	5280.62
584.543	5130.62
584.799	5158.62
585.056	5314.62
585.313	5435.62
585.57	5469.62
585.826	5346.62
586.083	5482.62
586.34	5663.62
586.597	5451.62
586.853	5331.62
587.11	5435.62
587.367	5618.62
587.623	5696.62
587.88	5586.62
588.137	5474.62
588.393	5637.62
588.65	5572.62
588.907	5460.62
589.163	5543.62
589.42	5628.62
589.677	5605.62
589.933	5525.62
590.19	5641.62
590.446	5796.62
590.703	5796.62
590.96	5517.62
591.216	5495.62
591.473	5591.62
591.729	5614.62
591.986	5596.62
592.242	5698.62
592.499	5908.62
592.755	5662.62
593.012	5502.62
593.268	5630.62
593.525	5635.62
593.781	5683.62
594.038	5586.62
594.294	5589.62
594.551	5608.62
594.807	5551.62
595.064	5546.62
595.32	5579.62
595.576	5705.62
595.833	5738.62
596.089	5602.62
596.346	5660.62
596.602	5688.62
596.858	5761.62
597.115	5656.62
597.371	5751.62
597.628	5694.62
597.884	5612.62
598.14	5545.62
598.397	5681.62
598.653	5765.62
598.909	5668.62
599.166	5548.62
599.422	5571.62
599.678	5681.62
599.934	5671.62
600.191	5550.62
600.447	5610.62
600.703	5644.62
600.959	5558.62
601.216	5355.62
601.472	5417.62
601.728	5600.62
601.984	5584.62
602.241	5490.62
602.497	5527.62
602.753	5688.62
603.009	5577.62
603.265	5456.62
603.521	5604.62
603.778	5705.62
604.034	5517.62
604.29	5478.62
604.546	5552.62
604.802	5645.62
605.058	5531.62
605.314	5468.62
605.571	5501.62
605.827	5517.62
606.083	5546.62
606.339	5424.62
606.595	5515.62
606.851	5660.62
607.107	5705.62
607.363	5467.62
607.619	5475.62
607.875	5696.62
608.131	5593.62
608.387	5326.62
608.643	5456.62
608.899	5569.62
609.155	5514.62
609.411	5459.62
609.667	5470.62
609.923	5510.62
610.179	5475.62
610.435	5296.62
610.691	5402.62
610.947	5519.62
611.203	5417.62
611.459	5347.62
611.714	5439.62
611.97	5624.62
612.226	5524.62
612.482	5286.62
612.738	5391.62
612.994	5627.62
613.25	5445.62
613.505	5263.62
613.761	5297.62
614.017	5359.62
614.273	5392.62
614.529	5313.62
614.785	5276.62
615.04	5346.62
615.296	5329.62
615.552	5270.62
615.808	5291.62
616.063	5360.62
616.319	5318.62
616.575	5202.62
616.831	5291.62
617.086	5500.62
617.342	5424.62
617.598	5286.62
617.854	5343.62
618.109	5359.62
618.365	5171.62
618.621	5116.62
618.876	5204.62
619.132	5326.62
619.388	5262.62
619.643	5076.62
619.899	5192.62
620.155	5224.62
620.41	5186.62
620.666	5080.62
620.921	5134.62
621.177	5233.62
621.433	5236.62
621.688	5122.62
621.944	5052.62
622.199	5140.62
622.455	5102.62
622.71	4940.62
622.966	4962.62
623.221	4925.62
623.477	4974.62
623.732	4976.62
623.988	4918.62
624.243	5062.62
624.499	4997.62
624.754	4865.62
625.01	4889.62
625.265	4975.62
625.521	5040.62
625.776	4893.62
626.032	4898.62
626.287	4917.62
626.543	4845.62
626.798	4778.62
627.053	4798.62
627.309	4861.62
627.564	4782.62
627.82	4787.62
628.075	4797.62
628.33	4744.62
628.586	4606.62
628.841	4500.62
629.096	4643.62
629.352	4738.62
629.607	4650.62
629.862	4594.62
630.118	4661.62
630.373	4628.62
630.628	4654.62
630.884	4527.62
631.139	4537.62
631.394	4678.62
631.649	4646.62
631.905	4498.62
632.16	4544.62
632.415	4720.62
632.67	4584.62
632.926	4404.62
633.181	4359.62
633.436	4524.62
633.691	4461.62
633.946	4297.62
634.202	4325.62
634.457	4425.62
634.712	4348.62
634.967	4281.62
635.222	4193.62
635.477	4287.62
635.733	4308.62
635.988	4181.62
636.243	4256.62
636.498	4350.62
636.753	4282.62
637.008	4135.62
637.263	4199.62
637.518	4277.62
637.773	4259.62
638.028	4141.62
638.283	4129.62
638.539	4249.62
638.794	4191.62
639.049	4047.62
639.304	4031.62
639.559	4120.62
639.814	4120.62
640.069	3987.62
640.324	3975.62
640.579	4088.62
640.834	4065.62
641.089	3908.62
641.344	3981.62
641.598	4157.62
641.853	4039.62
642.108	3866.62
642.363	3794.62
642.618	3955.62
642.873	3896.62
643.128	3751.62
643.383	3844.62
643.638	3891.62
643.893	3933.62
644.148	3877.62
644.402	3758.62
644.657	3822.62
644.912	3766.62
645.167	3758.62
645.422	3834.62
645.677	3812.62
645.931	3815.62
646.186	3814.62
646.441	3702.62
646.696	3654.62
646.951	3661.62
647.205	3627.62
647.46	3645.62
647.715	3725.62
647.97	3866.62
648.224	3938.62
648.479	3725.62
648.734	3803.62
648.989	3735.62
649.243	3635.62
649.498	3589.62
649.753	3649.62
650.007	3717.62
650.262	3582.62
650.517	3557.62
650.771	3604.62
651.026	3545.62
651.281	3424.62
651.535	3531.62
651.79	3590.62
652.045	3565.62
652.299	3482.62
652.554	3462.62
652.809	3547.62
653.063	3721.62
653.318	3585.62
653.572	3455.62
653.827	3581.62
654.081	3505.62
654.336	3401.62
654.591	3409.62
654.845	3510.62
655.1	3462.62
655.354	3395.62
655.609	3437.62
655.863	3535.62
656.118	3532.62
656.372	3407.62
656.627	3386.62
656.881	3473.62
657.136	3422.62
657.39	3319.62
657.645	3447.62
657.899	3545.62
658.153	3454.62
658.408	3389.62
658.662	3426.62
658.917	3446.62
659.171	3314.62
659.426	3273.62
659.68	3323.62
659.934	3424.62
660.189	3405.62
660.443	3272.62
660.697	3421.62
660.952	3539.62
661.206	3397.62
661.46	3253.62
661.715	3307.62
661.969	3392.62
662.223	3371.62
662.478	3313.62
662.732	3339.62
662.986	3408.62
663.241	3450.62
663.495	3340.62
663.749	3323.62
664.003	3463.62
664.258	3399.62
664.512	3322.62
664.766	3347.62
665.02	3412.62
665.275	3445.62
665.529	3269.62
665.783	3280.62
666.037	3349.62
666.291	3363.62
666.546	3297.62
666.8	3315.62
667.054	3307.62
667.308	3356.62
667.562	3159.62
667.816	3274.62
668.071	3419.62
668.325	3337.62
668.579	3306.62
668.833	3385.62
669.087	3532.62
669.341	3430.62
669.595	3337.62
669.849	3383.62
670.103	3409.62
670.357	3384.62
670.612	3376.62
670.866	3362.62
671.12	3426.62
671.374	3374.62
671.628	3337.62
671.882	3310.62
672.136	3443.62
672.39	3438.62
672.644	3301.62
672.898	3467.62
673.152	3610.62
673.406	3526.62
673.66	3425.62
673.914	3489.62
674.168	3553.62
674.422	3470.62
674.675	3382.62
674.929	3429.62
675.183	3519.62
675.437	3505.62
675.691	3479.62
675.945	3542.62
676.199	3636.62
676.453	3537.62
676.707	3379.62
676.961	3404.62
677.214	3499.62
677.468	3546.62
677.722	3546.62
677.976	3526.62
678.23	3589.62
678.484	3574.62
678.737	3439.62
678.991	3502.62
679.245	3590.62
679.499	3569.62
679.753	3482.62
680.006	3548.62
680.26	3704.62
680.514	3681.62
680.768	3500.62
681.021	3575.62
681.275	3593.62
681.529	3599.62
681.783	3555.62
682.036	3602.62
682.29	3582.62
682.544	3603.62
682.797	3544.62
683.051	3558.62
683.305	3639.62
683.559	3669.62
683.812	3662.62
684.066	3649.62
684.32	3765.62
684.573	3720.62
684.827	3707.62
685.08	3721.62
685.334	3811.62
685.588	3726.62
685.841	3585.62
686.095	3746.62
686.348	3773.62
686.602	3749.62
686.856	3740.62
687.109	3648.62
687.363	3715.62
687.616	3688.62
687.87	3541.62
688.123	3626.62
688.377	3741.62
688.63	3781.62
688.884	3759.62
689.137	3842.62
689.391	3866.62
689.644	3707.62
689.898	3618.62
690.151	3659.62
690.405	3806.62
690.658	3765.62
690.912	3669.62
691.165	3701.62
691.419	3800.62
691.672	3813.62
691.926	3756.62
692.179	3723.62
692.432	3764.62
692.686	3731.62
692.939	3587.62
693.193	3677.62
693.446	3835.62
693.699	3845.62
693.953	3837.62
694.206	3774.62
694.459	3866.62
694.713	3894.62
694.966	3731.62
695.219	3726.62
695.473	3822.62
695.726	3715.62
695.979	3675.62
696.233	3781.62
696.486	3837.62
696.739	3785.62
696.992	3717.62
697.246	3885.62
697.499	3938.62
697.752	3718.62
698.006	3698.62
698.259	3790.62
698.512	3791.62
698.765	3734.62
699.018	3667.62
699.272	3767.62
699.525	3796.62
699.778	3693.62
700.031	3669.62
700.284	3711.62
700.538	3795.62
700.791	3757.62
701.044	3737.62
701.297	3758.62
701.55	3796.62
701.803	3722.62
702.056	3626.62
702.31	3657.62
702.563	3775.62
702.816	3710.62
703.069	3606.62
703.322	3658.62
703.575	3751.62
703.828	3793.62
704.081	3726.62
704.334	3708.62
704.587	3742.62
704.84	3684.62
705.093	3663.62
705.346	3750.62
705.599	3741.62
705.853	3757.62
706.106	3787.62
706.359	4035.62
706.612	3778.62
706.865	3779.62
707.118	3580.62
707.37	3658.62
707.623	3793.62
707.876	3736.62
708.129	3647.62
708.382	3754.62
708.635	3847.62
708.888	3701.62
709.141	3583.62
709.394	3681.62
709.647	3708.62
709.9	3557.62
710.153	3443.62
710.406	3585.62
710.658	3697.62
710.911	3607.62
711.164	3465.62
711.417	3516.62
711.67	3602.62
711.923	3636.62
712.176	3466.62
712.428	3521.62
712.681	3596.62
712.934	3608.62
713.187	3529.62
713.44	3473.62
713.692	3604.62
713.945	3552.62
714.198	3441.62
714.451	3417.62
714.704	3582.62
714.956	3577.62
715.209	3570.62
715.462	3532.62
715.715	3551.62
715.967	3525.62
716.22	3351.62
716.473	3401.62
716.725	3549.62
716.978	3478.62
717.231	3445.62
717.484	3471.62
717.736	3389.62
717.989	3326.62
718.242	3272.62
718.494	3380.62
718.747	3522.62
718.999	3434.62
719.252	3435.62
719.505	3443.62
719.757	3381.62
720.01	3321.62
720.263	3321.62
720.515	3358.62
720.768	3433.62
721.02	3354.62
721.273	3249.62
721.525	3231.62
721.778	3323.62
722.031	3375.62
722.283	3218.62
722.536	3207.62
722.788	3299.62
723.041	3268.62
723.293	3195.62
723.546	3191.62
723.798	3235.62
724.051	3292.62
724.303	3242.62
724.556	3226.62
724.808	3376.62
725.061	3278.62
725.313	3159.62
725.566	3155.62
725.818	3180.62
726.071	3173.62
726.323	3031.62
726.575	3101.62
726.828	3220.62
727.08	3267.62
727.333	3084.62
727.585	3095.62
727.837	3160.62
728.09	3101.62
728.342	2950.62
728.595	3056.62
728.847	3203.62
729.099	2956.62
729.352	2967.62
729.604	2970.62
729.856	3040.62
730.109	3030.62
730.361	2984.62
730.613	3093.62
730.866	3149.62
731.118	2996.62
731.37	2928.62
731.622	2906.62
731.875	2985.62
732.127	3049.62
732.379	2950.62
732.631	2990.62
732.884	2998.62
733.136	2910.62
733.388	2825.62
733.64	2890.62
733.893	2988.62
734.145	2914.62
734.397	2779.62
734.649	2788.62
734.901	2906.62
735.154	2805.62
735.406	2736.62
735.658	2811.62
735.91	2903.62
736.162	2871.62
736.414	2734.62
736.667	2804.62
736.919	2838.62
737.171	2703.62
737.423	2675.62
737.675	2736.62
737.927	2855.62
738.179	2748.62
738.431	2711.62
738.684	2663.62
738.936	2768.62
739.188	2816.62
739.44	2590.62
739.692	2606.62
739.944	2621.62
740.196	2636.62
740.448	2588.62
740.7	2610.62
740.952	2667.62
741.204	2641.62
741.456	2559.62
741.708	2612.62
741.96	2632.62
742.212	2699.62
742.464	2672.62
742.716	2548.62
742.968	2607.62
743.22	2561.62
743.472	2469.62
743.724	2530.62
743.976	2697.62
744.228	2664.62
744.48	2453.62
744.732	2485.62
744.983	2621.62
745.235	2604.62
745.487	2540.62
745.739	2543.62
745.991	2539.62
746.243	2593.62
746.495	2405.62
746.747	2422.62
746.999	2528.62
747.25	2521.62
747.502	2496.62
747.754	2555.62
748.006	2506.62
748.258	2614.62
748.51	2589.62
748.761	2457.62
749.013	2521.62
749.265	2577.62
749.517	2556.62
749.768	2607.62
750.02	2595.62
750.272	2550.62
750.524	2405.62
750.776	2369.62
751.027	2550.62
751.279	2548.62
751.531	2333.62
751.782	2437.62
752.034	2556.62
752.286	2447.62
752.538	2300.62
752.789	2391.62
753.041	2445.62
753.293	2406.62
753.544	2334.62
753.796	2333.62
754.048	2428.62
754.299	2409.62
754.551	2347.62
754.803	2313.62
755.054	2329.62
755.306	2361.62
755.558	2299.62
755.809	2290.62
756.061	2410.62
756.312	2301.62
756.564	2279.62
756.816	2298.62
757.067	2334.62
757.319	2306.62
757.57	2277.62
757.822	2322.62
758.073	2407.62
758.325	2358.62
758.577	2197.62
758.828	2195.62
759.08	2394.62
759.331	2388.62
759.583	2178.62
759.834	2305.62
760.086	2293.62
760.337	2238.62
760.589	2199.62
760.84	2178.62
761.092	2275.62
761.343	2233.62
761.595	2085.62
761.846	2193.62
762.097	2242.62
762.349	2199.62
762.6	2015.62
762.852	2172.62
763.103	2300.62
763.355	2143.62
763.606	2067.62
763.857	2190.62
764.109	2301.62
764.36	2206.62
764.612	2093.62
764.863	2174.62
765.114	2208.62
765.366	2106.62
765.617	1982.62
765.868	2055.62
766.12	2217.62
766.371	2195.62
766.622	2015.62
766.874	2093.62
767.125	2217.62
767.376	2068.62
767.628	1981.62
767.879	2057.62
768.13	2113.62
768.381	2091.62
768.633	2081.62
768.884	2078.62
769.135	2163.62
769.386	2117.62
769.638	2018.62
769.889	2052.62
770.14	2090.62
770.391	1975.62
770.643	1921.62
770.894	1946.62
771.145	2052.62
771.396	1989.62
771.647	1894.62
771.899	2011.62
772.15	2092.62
772.401	2019.62
772.652	1862.62
772.903	1899.62
773.154	2241.62
773.406	2493.62
773.657	1946.62
773.908	1923.62
774.159	1997.62
774.41	2006.62
774.661	1869.62
774.912	1907.62
775.163	2078.62
775.414	2060.62
775.666	1813.62
775.917	1843.62
776.168	1911.62
776.419	1886.62
776.67	1807.62
776.921	1810.62
777.172	1875.62
777.423	1923.62
777.674	1930.62
777.925	1902.62
778.176	1871.62
778.427	1855.62
778.678	1774.62
778.929	1809.62
779.18	1906.62
779.431	1817.62
779.682	1790.62
779.933	1831.62
780.184	1890.62
780.435	1835.62
780.686	1776.62
780.937	1849.62
781.188	1865.62
781.439	1941.62
781.69	1891.62
781.941	1861.62
782.191	1822.62
782.442	1801.62
782.693	1715.62
782.944	1692.62
783.195	1759.62
783.446	1789.62
783.697	1808.62
783.948	1700.62
784.199	1726.62
784.449	1696.62
784.7	1711.62
784.951	1713.62
785.202	1886.62
785.453	1838.62
785.704	1654.62
785.954	1644.62
786.205	1726.62
786.456	1665.62
786.707	1573.62
786.958	1615.62
787.208	1700.62
787.459	1650.62
787.71	1701.62
787.961	1680.62
788.211	1707.62
788.462	1708.62
788.713	1632.62
788.964	1629.62
789.214	1745.62
789.465	1758.62
789.716	1674.62
789.967	1646.62
790.217	1629.62
790.468	1610.62
790.719	1545.62
790.969	1589.62
791.22	1630.62
791.471	1663.62
791.721	1695.62
791.972	1595.62
792.223	1675.62
792.473	1586.62
792.724	1561.62
792.975	1531.62
793.225	1608.62
793.476	1583.62
793.726	1510.62
793.977	1612.62
794.228	1737.62
794.478	1584.62
794.729	1498.62
794.979	1638.62
795.23	1672.62
795.481	1604.62
795.731	1526.62
795.982	1550.62
796.232	1535.62
796.483	1469.62
796.733	1422.62
796.984	1492.62
797.234	1555.62
797.485	1581.62
797.735	1420.62
797.986	1443.62
798.236	1574.62
798.487	1507.62
798.737	1512.62
798.988	1592.62
799.238	1609.62
799.489	1522.62
799.739	1439.62
799.99	1465.62
800.24	1547.62
800.491	1619.62
800.741	1493.62
800.991	1414.62
801.242	1477.62
801.492	1494.62
801.743	1430.62
801.993	1554.62
802.244	1644.62
802.494	1490.62
802.744	1445.62
802.995	1457.62
803.245	1501.62
803.495	1465.62
803.746	1387.62
803.996	1449.62
804.246	1442.62
804.497	1483.62
804.747	1369.62
804.997	1402.62
805.248	1423.62
805.498	1403.62
805.748	1410.62
805.999	1323.62
806.249	1393.62
806.499	1342.62
806.75	1278.62
807	1297.62
807.25	1426.62
807.5	1348.62
807.751	1361.62
808.001	1448.62
808.251	1472.62
808.501	1497.62
808.752	1467.62
809.002	1411.62
809.252	1389.62
809.502	1338.62
809.752	1307.62
810.003	1242.62
810.253	1343.62
810.503	1381.62
810.753	1382.62
811.003	1422.62
811.254	1432.62
811.504	1342.62
811.754	1312.62
812.004	1312.62
812.254	1548.62
812.504	1375.62
812.754	1290.62
813.005	1334.62
813.255	1412.62
813.505	1324.62
813.755	1252.62
814.005	1340.62
814.255	1340.62
814.505	1281.62
814.755	1199.62
815.005	1220.62
815.255	1349.62
815.505	1287.62
815.756	1322.62
816.006	1322.62
816.256	1280.62
816.506	1195.62
816.756	1151.62
817.006	1197.62
817.256	1276.62
817.506	1291.62
817.756	1233.62
818.006	1229.62
818.256	1279.62
818.506	1250.62
818.756	1161.62
819.006	1235.62
819.256	1284.62
819.506	1199.62
819.756	1164.62
820.006	1229.62
820.255	1298.62
820.505	1290.62
820.755	1154.62
821.005	1180.62
821.255	1300.62
821.505	1240.62
821.755	1181.62
822.005	1273.62
822.255	1315.62
822.505	1218.62
822.755	1236.62
823.004	1100.62
823.254	1153.62
823.504	1252.62
823.754	1227.62
824.004	1129.62
824.254	1238.62
824.504	1236.62
824.753	1276.62
825.003	1248.62
825.253	1288.62
825.503	1179.62
825.753	1140.62
826.002	1222.62
826.252	1417.62
826.502	1219.62
826.752	1116.62
827.002	1131.62
827.251	1235.62
827.501	1174.62
827.751	1104.62
828.001	1132.62
828.25	1217.62
828.5	1076.62
828.75	1045.62
829	1145.62
829.249	1257.62
829.499	1099.62
829.749	1119.62
829.998	1193.62
830.248	1195.62
830.498	1067.62
830.748	1072.62
830.997	1142.62
831.247	1220.62
831.497	1198.62
831.746	1110.62
831.996	1183.62
832.246	1283.62
832.495	1296.62
832.745	1053.62
832.994	1053.62
833.244	1211.62
833.494	1111.62
833.743	1002.62
833.993	1067.62
834.243	1169.62
834.492	1112.62
834.742	1065.62
834.991	1070.62
835.241	1233.62
835.49	1087.62
835.74	935.62
835.99	1009.62
836.239	1152.62
836.489	1167.62
836.738	1055.62
836.988	942.62
837.237	1062.62
837.487	1183.62
837.736	1044.62
837.986	1014.62
838.235	1076.62
838.485	1043.62
838.734	1012.62
838.984	1107.62
839.233	1079.62
839.483	973.62
839.732	917.62
839.982	995.62
840.231	1076.62
840.481	1092.62
840.73	967.62
840.979	1024.62
841.229	1033.62
841.478	997.62
841.728	893.62
841.977	895.62
842.227	949.62
842.476	904.62
842.725	846.62
842.975	917.62
843.224	1052.62
843.474	1098.62
843.723	979.62
843.972	960.62
844.222	1007.62
844.471	1050.62
844.72	925.62
844.97	950.62
845.219	1022.62
845.468	996.62
845.718	944.62
845.967	969.62
846.216	1002.62
846.466	1057.62
846.715	938.62
846.964	952.62
847.214	954.62
847.463	892.62
847.712	930.62
847.961	915.62
848.211	968.62
848.46	940.62
848.709	887.62
848.958	881.62
849.208	929.62
849.457	921.62
849.706	922.62
849.955	893.62
850.205	892.62
850.454	1033.62
850.703	1040.62
850.952	969.62
851.201	1007.62
851.451	933.62
851.7	931.62
851.949	835.62
852.198	917.62
852.447	897.62
852.696	823.62
852.946	864.62
853.195	969.62
853.444	978.62
853.693	781.62
853.942	775.62
854.191	879.62
854.44	881.62
854.689	835.62
854.939	806.62
855.188	794.62
855.437	810.62
855.686	789.62
855.935	827.62
856.184	877.62
856.433	918.62
856.682	859.62
856.931	853.62
857.18	873.62
857.429	795.62
857.678	759.62
857.927	809.62
858.176	851.62
858.425	778.62
858.674	691.62
858.924	796.62
859.173	816.62
859.422	845.62
859.671	722.62
859.92	773.62
860.169	812.62
860.417	873.62
860.666	796.62
860.915	742.62
861.164	778.62
861.413	729.62
861.662	668.62
861.911	724.62
862.16	835.62
862.409	808.62
862.658	669.62
862.907	716.62
863.156	812.62
863.405	806.62
863.654	704.62
863.903	631.62
864.151	732.62
864.4	778.62
864.649	723.62
864.898	760.62
865.147	827.62
865.396	833.62
865.645	674.62
865.894	739.62
866.142	843.62
866.391	742.62
866.64	665.62
866.889	762.62
867.138	893.62
867.387	784.62
867.635	675.62
867.884	728.62
868.133	830.62
868.382	751.62
868.631	613.62
868.879	618.62
869.128	769.62
869.377	736.62
869.626	686.62
869.874	676.62
870.123	783.62
870.372	726.62
870.621	598.62
870.869	637.62
871.118	754.62
871.367	732.62
871.616	607.62
871.864	707.62
872.113	743.62
872.362	712.62
872.61	666.62
872.859	719.62
873.108	771.62
873.357	652.62
873.605	554.62
873.854	559.62
874.103	607.62
874.351	636.62
874.6	645.62
874.848	668.62
875.097	705.62
875.346	690.62
875.594	567.62
875.843	698.62
876.092	823.62
876.34	704.62
876.589	586.62
876.837	495.62
877.086	604.62
877.335	651.62
877.583	598.62
877.832	638.62
878.08	745.62
878.329	642.62
878.578	553.62
878.826	594.62
879.075	688.62
879.323	688.62
879.572	587.62
879.82	720.62
880.069	671.62
880.317	673.62
880.566	557.62
880.814	649.62
881.063	762.62
881.311	665.62
881.56	676.62
881.808	582.62
882.057	666.62
882.305	625.62
882.554	644.62
882.802	538.62
883.051	583.62
883.299	603.62
883.548	564.62
883.796	638.62
884.045	642.62
884.293	563.62
884.541	441.62
884.79	441.62
885.038	556.62
885.287	567.62
885.535	567.62
885.783	598.62
886.032	543.62
886.28	490.62
886.529	438.62
886.777	507.62
887.025	689.62
887.274	569.62
887.522	490.62
887.77	509.62
888.019	524.62
888.267	505.62
888.516	432.62
888.764	474.62
889.012	563.62
889.261	537.62
889.509	440.62
889.757	457.62
890.005	505.62
890.254	451.62
890.502	466.62
890.75	681.62
890.999	668.62
891.247	578.62
891.495	543.62
891.743	513.62
891.992	657.62
892.24	542.62
892.488	436.62
892.737	471.62
892.985	555.62
893.233	529.62
893.481	465.62
893.729	433.62
893.978	603.62
894.226	639.62
894.474	477.62
894.722	464.62
894.97	493.62
895.219	488.62
895.467	494.62
895.715	518.62
895.963	513.62
896.211	465.62
896.46	370.62
896.708	474.62
896.956	565.62
897.204	634.62
897.452	531.62
897.7	448.62
897.948	506.62
898.197	474.62
898.445	413.62
898.693	445.62
898.941	515.62
899.189	497.62
899.437	457.62
899.685	542.62
899.933	462.62
900.181	485.62
900.43	408.62
900.678	418.62
900.926	484.62
901.174	445.62
901.422	388.62
901.67	425.62
901.918	498.62
902.166	429.62
902.414	309.62
902.662	352.62
902.91	462.62
903.158	463.62
903.406	403.62
903.654	417.62
903.902	452.62
904.15	441.62
904.398	302.62
904.646	394.62
904.894	473.62
905.142	470.62
905.39	420.62
905.638	367.62
905.886	421.62
906.134	402.62
906.382	397.62
906.63	365.62
906.878	463.62
907.126	436.62
907.374	342.62
907.622	377.62
907.869	482.62
908.117	440.62
908.365	355.62
908.613	357.62
908.861	378.62
909.109	327.62
909.357	306.62
909.605	365.62
909.853	447.62
910.1	375.62
910.348	224.62
910.596	271.62
910.844	447.62
911.092	484.62
911.34	371.62
911.588	368.62
911.835	417.62
912.083	402.62
912.331	375.62
912.579	410.62
912.827	570.62
913.075	441.62
913.322	298.62
913.57	309.62
913.818	453.62
914.066	379.62
914.313	303.62
914.561	388.62
914.809	405.62
915.057	333.62
915.305	320.62
915.552	337.62
915.8	434.62
916.048	335.62
916.296	261.62
916.543	386.62
916.791	462.62
917.039	378.62
917.286	267.62
917.534	295.62
917.782	399.62
918.03	307.62
918.277	201.62
918.525	228.62
918.773	355.62
919.02	350.62
919.268	272.62
919.516	300.62
919.763	297.62
920.011	319.62
920.259	225.62
920.506	303.62
920.754	387.62
921.002	373.62
921.249	331.62
921.497	297.62
921.745	341.62
921.992	353.62
922.24	200.62
922.487	331.62
922.735	488.62
922.983	398.62
923.23	314.62
923.478	254.62
923.725	346.62
923.973	371.62
924.221	333.62
924.468	365.62
924.716	357.62
924.963	323.62
925.211	254.62
925.458	332.62
925.706	433.62
925.953	461.62
926.201	275.62
926.448	255.62
926.696	347.62
926.944	323.62
927.191	262.62
927.439	267.62
927.686	292.62
927.934	309.62
928.181	222.62
928.429	224.62
928.676	287.62
928.923	208.62
929.171	185.62
929.418	331.62
929.666	359.62
929.913	356.62
930.161	174.62
930.408	198.62
930.656	276.62
930.903	298.62
931.151	196.62
931.398	233.62
931.645	367.62
931.893	253.62
932.14	210.62
932.388	237.62
932.635	385.62
932.882	414.62
933.13	271.62
933.377	224.62
933.625	319.62
933.872	233.62
934.119	162.62
934.367	230.62
934.614	225.62
934.861	191.62
935.109	190.62
935.356	261.62
935.603	295.62
935.851	232.62
936.098	180.62
936.345	290.62
936.593	305.62
936.84	262.62
937.087	111.62
937.335	191.62
937.582	262.62
937.829	257.62
938.077	219.62
938.324	219.62
938.571	270.62
938.818	193.62
939.066	134.62
939.313	136.62
939.56	264.62
939.807	277.62
940.055	149.62
940.302	197.62
940.549	361.62
940.796	268.62
941.044	216.62
941.291	217.62
941.538	383.62
941.785	269.62
942.033	206.62
942.28	242.62
942.527	273.62
942.774	259.62
943.021	115.62
943.269	155.62
943.516	266.62
943.763	260.62
944.01	195.62
944.257	269.62
944.504	336.62
944.752	290.62
944.999	223.62
945.246	157.62
945.493	254.62
945.74	226.62
945.987	150.62
946.234	237.62
946.482	323.62
946.729	202.62
946.976	133.62
947.223	184.62
947.47	321.62
947.717	279.62
947.964	300.62
948.211	243.62
948.458	306.62
948.705	222.62
948.952	130.62
949.2	201.62
949.447	332.62
949.694	323.62
949.941	170.62
950.188	166.62
950.435	190.62
950.682	225.62
950.929	105.62
951.176	152.62
951.423	294.62
951.67	272.62
951.917	229.62
952.164	215.62
952.411	282.62
952.658	326.62
952.905	182.62
953.152	122.62
953.399	246.62
953.646	235.62
953.893	111.62
954.14	165.62
954.387	229.62
954.634	201.62
954.881	138.62
955.128	208.62
955.375	207.62
955.622	183.62
955.869	178.62
956.115	166.62
956.362	255.62
956.609	219.62
956.856	125.62
957.103	136.62
957.35	241.62
957.597	251.62
957.844	170.62
958.091	153.62
958.338	229.62
958.585	173.62
958.831	-0.38
959.078	71.62
959.325	246.62
959.572	137.62
959.819	62.62
960.066	34.62
960.313	160.62
960.559	137.62
960.806	16.62
961.053	61.62
961.3	239.62
961.547	277.62
961.794	65.62
962.04	205.62
962.287	227.62
962.534	100.62
962.781	83.62
963.028	142.62
963.274	255.62
963.521	156.62
963.768	96.62
964.015	144.62
964.262	294.62
964.508	125.62
964.755	29.62
965.002	55.62
965.249	112.62
965.495	73.62
965.742	40.62
965.989	58.62
966.236	189.62
966.482	124.62
966.729	57.62
966.976	38.62
967.222	113.62
967.469	121.62
967.716	51.62
967.963	61.62
968.209	143.62
968.456	114.62
968.703	-2.38
968.949	90.62
969.196	271.62
969.443	271.62
969.689	53.62
969.936	20.62
970.183	128.62
970.429	61.62
970.676	33.62
970.923	101.62
971.169	146.62
971.416	66.62
971.663	37.62
971.909	87.62
972.156	159.62
972.402	145.62
972.649	89.62
972.896	112.62
973.142	126.62
973.389	159.62
973.635	44.62
973.882	155.62
974.129	227.62
974.375	105.62
974.622	6.62
974.868	22.62
975.115	99.62
975.361	61.62
975.608	34.62
975.855	166.62
976.101	182.62
976.348	95.62
976.594	36.62
976.841	111.62
977.087	112.62
977.334	138.62
977.58	-9.38
977.827	-5.38
978.073	139.62
978.32	135.62
978.566	-4.38
978.813	89.62
979.059	124.62
979.306	97.62
979.552	-6.38
979.799	55.62
980.045	73.62
980.292	83.62
980.538	6.62
980.785	-9.38
981.031	39.62
981.278	3.62
981.524	-54.38
981.771	88.62
982.017	236.62
982.263	153.62
982.51	-1.38
982.756	76.62
983.003	146.62
983.249	98.62
983.495	-5.38
983.742	-4.38
983.988	66.62
984.235	80.62
984.481	-21.38
984.727	-3.38
984.974	130.62
985.22	128.62
985.467	58.62
985.713	44.62
985.959	167.62
986.206	134.62
986.452	34.62
986.698	95.62
986.945	98.62
987.191	131.62
987.437	134.62
987.684	99.62
987.93	249.62
988.176	139.62
988.423	-40.38
988.669	48.62
988.915	207.62
989.162	65.62
989.408	-41.38
989.654	32.62
989.901	67.62
990.147	59.62
990.393	73.62
990.639	129.62
990.886	155.62
991.132	199.62
991.378	131.62
991.625	238.62
991.871	214.62
992.117	131.62
992.363	29.62
992.61	86.62
992.856	221.62
993.102	65.62
993.348	-16.38
993.594	28.62
993.841	86.62
994.087	204.62
994.333	71.62
994.579	50.62
994.826	83.62
995.072	94.62
995.318	-80.38
995.564	-28.38
995.81	97.62
996.057	49.62
996.303	-37.38
996.549	-24.38
996.795	61.62
997.041	54.62
997.287	13.62
997.534	28.62
997.78	76.62
998.026	82.62
998.272	-37.38
998.518	-41.38
998.764	112.62
999.01	134.62
999.256	29.62
999.503	-16.38
999.749	11.62
999.995	-19.38
1000.241	-44.38
1000.487	25.62
1000.733	83.62
1000.979	32.62
1001.225	2.62
1001.471	68.62
1001.718	115.62
1001.964	140.62
1002.21	-22.38
1002.456	12.62
1002.702	159.62
1002.948	70.62
1003.194	4.62
1003.44	-24.38
1003.686	68.62
1003.932	15.62
1004.178	-37.38
1004.424	18.62
1004.67	168.62
1004.916	150.62
1005.162	27.62
1005.408	-26.38
1005.654	115.62
1005.9	-26.38
1006.146	-79.38
1006.392	-13.38
1006.638	70.62
1006.884	36.62
1007.13	-37.38
1007.376	-70.38
1007.622	117.62
1007.868	128.62
1008.114	-0.38
1008.36	55.62
1008.606	93.62
1008.852	95.62
1009.098	38.62
1009.344	92.62
1009.59	61.62
1009.836	-65.38
1010.082	-149.38
1010.328	-37.38
1010.574	59.62
1010.82	-35.38
1011.065	-110.38
1011.311	-81.38
1011.557	34.62
1011.803	-17.38
1012.049	-72.38
1012.295	-21.38
1012.541	31.62
1012.787	31.62
1013.033	-112.38
1013.278	-121.38
1013.524	19.62
1013.77	94.62
1014.016	-21.38
1014.262	-0.38
1014.508	118.62
1014.754	-47.38
1015	-91.38
1015.245	59.62
1015.491	91.62
1015.737	59.62
1015.983	-60.38
1016.229	-86.38
1016.475	14.62
1016.72	155.62
1016.966	189.62
1017.212	59.62
1017.458	115.62
1017.704	42.62
1017.949	-110.38
1018.195	66.62
1018.441	182.62
1018.687	116.62
1018.933	-50.38
1019.178	-40.38
1019.424	125.62
1019.67	135.62
1019.916	-62.38
1020.161	-25.38
1020.407	43.62
1020.653	-25.38
1020.899	-79.38
1021.144	6.62
1021.39	78.62
1021.636	-40.38
1021.882	-127.38
1022.127	-10.38
1022.373	143.62
1022.619	62.62
1022.865	-45.38
1023.11	-38.38
1023.356	93.62
1023.602	19.62
1023.847	-31.38
1024.093	29.62
1024.339	-11.38
1024.584	-28.38
1024.83	-48.38
1025.076	-40.38
1025.321	69.62
1025.567	32.62
1025.813	-71.38
1026.058	9.62
1026.304	71.62
1026.55	-6.38
1026.795	-13.38
1027.041	-20.38
1027.287	34.62
1027.532	65.62
1027.778	30.62
1028.024	-5.38
1028.269	27.62
1028.515	-50.38
1028.76	-87.38
1029.006	-14.38
1029.252	104.62
1029.497	28.62
1029.743	1.62
1029.989	-52.38
1030.234	80.62
1030.48	139.62
1030.725	-52.38
1030.971	-23.38
1031.216	102.62
1031.462	33.62
1031.708	-120.38
1031.953	-83.38
1032.199	9.62
1032.444	30.62
1032.69	-3.38
1032.935	-23.38
1033.181	90.62
1033.426	-26.38
1033.672	-177.38
1033.918	-112.38
1034.163	-12.38
1034.409	-23.38
1034.654	-69.38
1034.9	19.62
1035.145	68.62
1035.391	-2.38
1035.636	-115.38
1035.882	-32.38
1036.127	-41.38
1036.373	-78.38
1036.618	-162.38
1036.864	-63.38
1037.109	80.62
1037.355	-16.38
1037.6	-88.38
1037.845	-38.38
1038.091	146.62
1038.336	88.62
1038.582	99.62
1038.827	180.62
1039.073	24.62
1039.318	-49.38
1039.564	-144.38
1039.809	-84.38
1040.055	94.62
1040.3	92.62
1040.545	-70.38
1040.791	-72.38
1041.036	-10.38
1041.282	25.62
1041.527	74.62
1041.772	-96.38
1042.018	-28.38
1042.263	7.62
1042.509	-141.38
1042.754	-94.38
1042.999	23.62
1043.245	-15.38
1043.49	-188.38
1043.736	-102.38
1043.981	-6.38
1044.226	-5.38
1044.472	-13.38
1044.717	-13.38
1044.962	99.62
1045.208	15.62
1045.453	-212.38
1045.698	-139.38
1045.944	66.62
1046.189	39.62
1046.434	-67.38
1046.68	-51.38
1046.925	135.62
1047.17	-30.38
1047.416	-194.38
1047.661	-85.38
1047.906	61.62
1048.152	34.62
1048.397	-59.38
1048.642	-73.38
1048.887	118.62
1049.133	110.62
1049.378	-64.38
1049.623	-78.38
1049.869	45.62
1050.114	-39.38
1050.359	-101.38
1050.604	-20.38
1050.85	131.62
1051.095	-3.38
1051.34	-110.38
1051.585	-37.38
1051.831	146.62
1052.076	-14.38
1052.321	-215.38
1052.566	-101.38
1052.812	95.62
1053.057	2.62
1053.302	-81.38
1053.547	20.62
1053.792	69.62
1054.038	66.62
1054.283	-152.38
1054.528	-62.38
1054.773	11.62
1055.018	9.62
1055.264	-98.38
1055.509	-132.38
1055.754	-11.38
1055.999	-65.38
1056.244	-140.38
1056.49	-77.38
1056.735	11.62
1056.98	-45.38
1057.225	-134.38
1057.47	50.62
1057.715	-15.38
1057.96	-93.38
1058.206	-141.38
1058.451	-32.38
1058.696	99.62
1058.941	30.62
1059.186	-142.38
1059.431	-103.38
1059.676	97.62
1059.922	5.62
1060.167	96.62
1060.412	279.62
1060.657	63.62
1060.902	-3.38
1061.147	-178.38
1061.392	-89.38
1061.637	35.62
1061.882	-45.38
1062.127	-176.38
1062.373	-162.38
1062.618	112.62
1062.863	124.62
1063.108	-66.38
1063.353	-118.38
1063.598	-12.38
1063.843	-53.38
1064.088	-130.38
1064.333	-126.38
1064.578	20.62
1064.823	38.62
1065.068	-195.38
1065.313	-114.38
1065.558	45.62
1065.803	44.62
1066.048	-155.38
1066.293	-138.38
1066.538	81.62
1066.783	-17.38
1067.028	-193.38
1067.273	-156.38
1067.518	27.62
1067.763	-25.38
1068.008	-182.38
1068.253	-121.38
1068.498	47.62
1068.743	-13.38
1068.988	-165.38
1069.233	-146.38
1069.478	57.62
1069.723	119.62
1069.968	-70.38
1070.213	-37.38
1070.458	62.62
1070.703	-32.38
1070.948	-200.38
1071.193	-90.38
1071.438	52.62
1071.683	76.62
1071.928	-36.38
1072.173	-51.38
1072.418	16.62
1072.663	-16.38
1072.908	-152.38
1073.152	-96.38
1073.397	84.62
1073.642	-32.38
1073.887	-82.38
1074.132	30.62
1074.377	18.62
1074.622	-18.38
1074.867	-133.38
1075.112	-73.38
1075.357	115.62
1075.601	-22.38
1075.846	-87.38
1076.091	-6.38
1076.336	75.62
1076.581	-64.38
1076.826	-173.38
1077.071	-74.38
1077.315	167.62
1077.56	85.62
1077.805	-131.38
1078.05	-88.38
1078.295	-16.38
1078.54	-48.38
1078.785	-168.38
1079.029	-110.38
1079.274	67.62
1079.519	-84.38
1079.764	-189.38
1080.009	-66.38
1080.253	18.62
1080.498	-63.38
1080.743	-216.38
1080.988	-58.38
1081.233	129.62
1081.478	59.62
1081.722	-117.38
1081.967	-2.38
1082.212	144.62
1082.457	37.62
1082.701	-98.38
1082.946	-81.38
1083.191	61.62
1083.436	-72.38
1083.681	-216.38
1083.925	-104.38
1084.17	0.62
1084.415	37.62
1084.66	-174.38
1084.904	-81.38
1085.149	-5.38
1085.394	-27.38
1085.639	-205.38
1085.883	-111.38
1086.128	145.62
1086.373	143.62
1086.617	-82.38
1086.862	-139.38
1087.107	-13.38
1087.352	-60.38
1087.596	-143.38
1087.841	-17.38
1088.086	23.62
1088.33	4.62
1088.575	-234.38
1088.82	-107.38
1089.064	61.62
1089.309	-73.38
1089.554	-177.38
1089.798	-151.38
1090.043	36.62
1090.288	-9.38
1090.533	-184.38
1090.777	-120.38
1091.022	26.62
1091.266	49.62
1091.511	-117.38
1091.756	-28.38
1092	131.62
1092.245	96.62
1092.49	-165.38
1092.734	-97.38
1092.979	90.62
1093.224	-25.38
1093.468	-180.38
1093.713	-118.38
1093.957	24.62
1094.202	-37.38
1094.447	-216.38
1094.691	-94.38
1094.936	48.62
1095.181	10.62
1095.425	-166.38
1095.67	-158.38
1095.914	18.62
1096.159	-3.38
1096.403	-137.38
1096.648	-57.38
1096.893	71.62
1097.137	-77.38
1097.382	-224.38
1097.626	-148.38
1097.871	26.62
1098.115	-35.38
1098.36	-214.38
1098.605	-105.38
1098.849	-34.38
1099.094	-108.38
1099.338	-186.38
1099.583	-94.38
1099.827	116.62
1100.072	39.62
1100.316	-153.38
1100.561	-93.38
1100.805	77.62
1101.05	51.62
1101.294	-158.38
1101.539	-155.38
1101.783	5.62
1102.028	6.62
1102.273	-140.38
1102.517	-66.38
1102.761	69.62
1103.006	-65.38
1103.25	-277.38
1103.495	-171.38
1103.739	66.62
1103.984	115.62
1104.228	-100.38
1104.473	-27.38
1104.717	46.62
1104.962	13.62
1105.206	-112.38
1105.451	-133.38
1105.695	27.62
1105.94	3.62
1106.184	-138.38
1106.429	-93.38
1106.673	5.62
1106.917	67.62
1107.162	-162.38
1107.406	-11.38
1107.651	149.62
1107.895	-78.38
1108.14	-189.38
1108.384	-93.38
1108.628	128.62
1108.873	121.62
1109.117	-133.38
1109.362	-118.38
1109.606	-15.38
1109.85	-11.38
1110.095	-156.38
1110.339	-85.38
1110.584	96.62
1110.828	41.62
1111.072	-88.38
1111.317	-113.38
1111.561	-13.38
1111.806	-27.38
1112.05	-174.38
1112.294	-76.38
1112.539	29.62
1112.783	0.62
1113.027	-111.38
1113.272	-111.38
1113.516	-16.38
1113.76	-43.38
1114.005	-155.38
1114.249	-91.38
1114.493	73.62
1114.738	83.62
1114.982	-49.38
1115.226	-75.38
1115.471	10.62
1115.715	-12.38
1115.959	-176.38
1116.204	-156.38
1116.448	6.62
1116.692	-85.38
1116.937	-160.38
1117.181	-2.38
1117.425	-15.38
1117.67	-81.38
1117.914	-153.38
1118.158	-93.38
1118.402	147.62
1118.647	70.62
1118.891	-79.38
1119.135	-15.38
1119.38	126.62
1119.624	16.62
1119.868	-135.38
1120.112	-138.38
1120.357	-40.38
1120.601	-114.38
1120.845	-211.38
1121.089	-132.38
1121.334	43.62
