Data from HR4C21111__36__10-11-49-971.txt Node

Date: Mon Feb 22 10:11:49 IST 2021
User: Kapil
Spectrometer: HR4C2111
Trigger mode: 4
Integration Time (sec): 2.300000E0
Scans to average: 1
Electric dark correction enabled: true
Nonlinearity correction enabled: false
Boxcar width: 0
XAxis mode: Wavelengths
Number of Pixels in Spectrum: 3648
>>>>>Begin Spectral Data<<<<<
189.472	-471.31
189.745	-471.31
190.017	-471.31
190.289	-469.31
190.561	-298.31
190.834	-21.31
191.106	-110.31
191.378	24.69
191.65	5.69
191.923	-148.31
192.195	-100.31
192.467	140.69
192.739	108.69
193.011	-19.31
193.284	81.69
193.556	167.69
193.828	-21.31
194.1	-108.31
194.372	-138.31
194.644	32.69
194.916	39.69
195.188	-156.31
195.46	-90.31
195.732	57.69
196.004	-3.31
196.276	-126.31
196.548	-75.31
196.82	71.69
197.092	67.69
197.364	-137.31
197.636	-92.31
197.908	28.69
198.18	-55.31
198.452	-118.31
198.724	-73.31
198.996	45.69
199.268	75.69
199.54	-12.31
199.811	-110.31
200.083	81.69
200.355	9.69
200.627	-191.31
200.899	-66.31
201.171	38.69
201.442	-71.31
201.714	-191.31
201.986	-105.31
202.258	51.69
202.529	114.69
202.801	-4.31
203.073	56.69
203.345	163.69
203.616	-6.31
203.888	-145.31
204.16	-157.31
204.431	60.69
204.703	-21.31
204.974	-138.31
205.246	-6.31
205.518	177.69
205.789	-6.31
206.061	-133.31
206.332	-122.31
206.604	2.69
206.876	69.69
207.147	115.69
207.419	12.69
207.69	135.69
207.962	-44.31
208.233	-190.31
208.505	14.69
208.776	177.69
209.047	83.69
209.319	-145.31
209.59	-92.31
209.862	140.69
210.133	36.69
210.404	-149.31
210.676	-108.31
210.947	71.69
211.219	53.69
211.49	-131.31
211.761	-52.31
212.033	26.69
212.304	-50.31
212.575	-194.31
212.846	-98.31
213.118	29.69
213.389	-55.31
213.66	-109.31
213.931	-40.31
214.203	31.69
214.474	-46.31
214.745	-145.31
215.016	141.69
215.287	448.69
215.559	62.69
215.83	-120.31
216.101	-79.31
216.372	0.69
216.643	59.69
216.914	-2.31
217.185	-88.31
217.456	144.69
217.727	13.69
217.998	-172.31
218.269	-67.31
218.54	33.69
218.811	-6.31
219.082	-99.31
219.353	-67.31
219.624	-11.31
219.895	-44.31
220.166	-147.31
220.437	-129.31
220.708	82.69
220.979	-18.31
221.25	-140.31
221.521	-92.31
221.792	36.69
222.063	78.69
222.334	30.69
222.604	179.69
222.875	150.69
223.146	72.69
223.417	-179.31
223.688	-47.31
223.958	115.69
224.229	-51.31
224.5	-192.31
224.771	-66.31
225.041	88.69
225.312	35.69
225.583	-130.31
225.854	-63.31
226.124	94.69
226.395	-10.31
226.666	-140.31
226.936	-99.31
227.207	66.69
227.478	-55.31
227.748	-110.31
228.019	45.69
228.289	247.69
228.56	-42.31
228.831	-51.31
229.101	56.69
229.372	73.69
229.642	-26.31
229.913	-160.31
230.183	-137.31
230.454	-3.31
230.724	4.69
230.995	-94.31
231.265	-53.31
231.536	59.69
231.806	38.69
232.076	-99.31
232.347	-113.31
232.617	18.69
232.888	12.69
233.158	-72.31
233.428	-127.31
233.699	-24.31
233.969	-60.31
234.239	-157.31
234.51	-98.31
234.78	40.69
235.05	-33.31
235.321	-138.31
235.591	-86.31
235.861	38.69
236.131	-61.31
236.402	-198.31
236.672	-88.31
236.942	41.69
237.212	32.69
237.483	-48.31
237.753	11.69
238.023	161.69
238.293	6.69
238.563	-92.31
238.833	-108.31
239.103	65.69
239.374	-8.31
239.644	-161.31
239.914	-44.31
240.184	132.69
240.454	-10.31
240.724	-175.31
240.994	-68.31
241.264	16.69
241.534	54.69
241.804	-7.31
242.074	-85.31
242.344	-24.31
242.614	-58.31
242.884	-183.31
243.154	-128.31
243.424	35.69
243.694	57.69
243.964	-106.31
244.234	-90.31
244.503	113.69
244.773	2.69
245.043	-228.31
245.313	-151.31
245.583	105.69
245.853	71.69
246.123	-187.31
246.392	-123.31
246.662	-21.31
246.932	-43.31
247.202	-183.31
247.471	-67.31
247.741	243.69
248.011	86.69
248.281	-156.31
248.55	-100.31
248.82	47.69
249.09	-25.31
249.359	-100.31
249.629	-96.31
249.899	27.69
250.168	52.69
250.438	-14.31
250.708	-102.31
250.977	71.69
251.247	49.69
251.516	-126.31
251.786	-70.31
252.055	97.69
252.325	3.69
252.595	-98.31
252.864	-60.31
253.134	30.69
253.403	-37.31
253.673	-167.31
253.942	-112.31
254.212	32.69
254.481	1.69
254.75	-139.31
255.02	-95.31
255.289	63.69
255.559	-21.31
255.828	-144.31
256.097	-42.31
256.367	21.69
256.636	-74.31
256.906	-155.31
257.175	-41.31
257.444	220.69
257.714	50.69
257.983	-84.31
258.252	-49.31
258.521	10.69
258.791	36.69
259.06	-120.31
259.329	-49.31
259.598	50.69
259.868	-1.31
260.137	-138.31
260.406	-34.31
260.675	69.69
260.944	13.69
261.214	-141.31
261.483	-66.31
261.752	168.69
262.021	-2.31
262.29	-186.31
262.559	-129.31
262.828	-8.31
263.097	-59.31
263.366	-220.31
263.635	-111.31
263.905	130.69
264.174	1.69
264.443	-214.31
264.712	-114.31
264.981	38.69
265.25	-51.31
265.519	-146.31
265.788	-151.31
266.057	36.69
266.325	52.69
266.594	-75.31
266.863	-141.31
267.132	11.69
267.401	-2.31
267.67	-205.31
267.939	-167.31
268.208	18.69
268.477	72.69
268.745	-132.31
269.014	-116.31
269.283	132.69
269.552	22.69
269.821	-134.31
270.089	-21.31
270.358	-10.31
270.627	-40.31
270.896	-144.31
271.164	-179.31
271.433	4.69
271.702	85.69
271.971	-157.31
272.239	-150.31
272.508	23.69
272.777	-39.31
273.045	-23.31
273.314	-42.31
273.583	92.69
273.851	-34.31
274.12	-167.31
274.388	-130.31
274.657	-14.31
274.926	-16.31
275.194	-167.31
275.463	-86.31
275.731	2.69
276	146.69
276.268	339.69
276.537	-82.31
276.805	16.69
277.074	37.69
277.342	-165.31
277.611	-111.31
277.879	94.69
278.148	29.69
278.416	-155.31
278.684	-115.31
278.953	-18.31
279.221	-42.31
279.49	-206.31
279.758	-116.31
280.026	-21.31
280.295	-21.31
280.563	-134.31
280.831	874.69
281.1	2150.69
281.368	190.69
281.636	-110.31
281.904	-128.31
282.173	-21.31
282.441	-55.31
282.709	-97.31
282.977	26.69
283.246	28.69
283.514	-47.31
283.782	-76.31
284.05	30.69
284.318	69.69
284.587	-19.31
284.855	-139.31
285.123	-63.31
285.391	65.69
285.659	36.69
285.927	-151.31
286.195	-58.31
286.463	50.69
286.732	-12.31
287	-134.31
287.268	-60.31
287.536	24.69
287.804	-48.31
288.072	-151.31
288.34	-89.31
288.608	56.69
288.876	-44.31
289.144	-144.31
289.412	-30.31
289.68	42.69
289.948	-33.31
290.215	-114.31
290.483	-104.31
290.751	88.69
291.019	91.69
291.287	-185.31
291.555	-130.31
291.823	25.69
292.091	-26.31
292.358	-94.31
292.626	-43.31
292.894	58.69
293.162	39.69
293.43	-127.31
293.697	-96.31
293.965	38.69
294.233	-42.31
294.501	-172.31
294.768	-72.31
295.036	70.69
295.304	28.69
295.572	-152.31
295.839	-116.31
296.107	91.69
296.375	-16.31
296.642	-140.31
296.91	-127.31
297.178	38.69
297.445	167.69
297.713	88.69
297.98	-86.31
298.248	-35.31
298.516	-41.31
298.783	-119.31
299.051	-122.31
299.318	19.69
299.586	-39.31
299.853	-102.31
300.121	-87.31
300.388	33.69
300.656	-15.31
300.923	-165.31
301.191	-56.31
301.458	32.69
301.726	-32.31
301.993	-144.31
302.26	-88.31
302.528	35.69
302.795	-16.31
303.063	-101.31
303.33	-61.31
303.597	33.69
303.865	25.69
304.132	-131.31
304.399	-132.31
304.667	-43.31
304.934	-11.31
305.201	-109.31
305.469	-31.31
305.736	43.69
306.003	21.69
306.27	-59.31
306.538	-108.31
306.805	-28.31
307.072	-35.31
307.339	-110.31
307.606	-73.31
307.874	128.69
308.141	54.69
308.408	-145.31
308.675	-123.31
308.942	-59.31
309.209	-86.31
309.477	-153.31
309.744	-112.31
310.011	20.69
310.278	23.69
310.545	-34.31
310.812	-56.31
311.079	129.69
311.346	172.69
311.613	40.69
311.88	-46.31
312.147	-79.31
312.414	-56.31
312.681	-125.31
312.948	-42.31
313.215	102.69
313.482	61.69
313.749	-117.31
314.016	-213.31
314.283	-68.31
314.55	35.69
314.817	-118.31
315.083	-129.31
315.35	-85.31
315.617	-149.31
315.884	-159.31
316.151	43.69
316.418	160.69
316.684	-30.31
316.951	-206.31
317.218	-125.31
317.485	-10.31
317.752	-71.31
318.018	-124.31
318.285	-21.31
318.552	10.69
318.819	-68.31
319.085	-140.31
319.352	-42.31
319.619	28.69
319.885	-49.31
320.152	-211.31
320.419	-132.31
320.685	11.69
320.952	-32.31
321.219	-73.31
321.485	70.69
321.752	2.69
322.019	-68.31
322.285	20.69
322.552	-18.31
322.818	118.69
323.085	-34.31
323.351	-136.31
323.618	-22.31
323.884	29.69
324.151	-83.31
324.417	-35.31
324.684	-94.31
324.95	-76.31
325.217	-147.31
325.483	-178.31
325.75	-47.31
326.016	-14.31
326.283	-30.31
326.549	-204.31
326.815	-94.31
327.082	107.69
327.348	11.69
327.615	-113.31
327.881	-40.31
328.147	122.69
328.414	120.69
328.68	-3.31
328.946	-56.31
329.212	22.69
329.479	-17.31
329.745	-153.31
330.011	-111.31
330.278	20.69
330.544	-58.31
330.81	-39.31
331.076	-34.31
331.342	-45.31
331.609	-39.31
331.875	-104.31
332.141	-106.31
332.407	16.69
332.673	-22.31
332.94	-30.31
333.206	-58.31
333.472	50.69
333.738	68.69
334.004	-130.31
334.27	-34.31
334.536	-11.31
334.802	-60.31
335.068	-120.31
335.334	-19.31
335.6	15.69
335.866	-26.31
336.132	-175.31
336.398	-103.31
336.664	-31.31
336.93	-48.31
337.196	-96.31
337.462	-46.31
337.728	10.69
337.994	-60.31
338.26	-117.31
338.526	-56.31
338.792	-68.31
339.058	-59.31
339.324	-159.31
339.59	-15.31
339.856	39.69
340.121	-73.31
340.387	-129.31
340.653	57.69
340.919	135.69
341.185	42.69
341.45	-81.31
341.716	6.69
341.982	97.69
342.248	-73.31
342.514	-91.31
342.779	-8.31
343.045	17.69
343.311	-28.31
343.576	-115.31
343.842	-55.31
344.108	135.69
344.374	15.69
344.639	-128.31
344.905	-103.31
345.171	42.69
345.436	-83.31
345.702	-112.31
345.967	29.69
346.233	54.69
346.499	-2.31
346.764	-193.31
347.03	-75.31
347.295	-39.31
347.561	-12.31
347.826	-74.31
348.092	-138.31
348.357	-40.31
348.623	-46.31
348.888	-151.31
349.154	-109.31
349.419	17.69
349.685	-21.31
349.95	-95.31
350.216	-73.31
350.481	14.69
350.747	-72.31
351.012	-220.31
351.277	-136.31
351.543	7.69
351.808	-36.31
352.074	-195.31
352.339	-151.31
352.604	-2.31
352.87	-26.31
353.135	-142.31
353.4	-93.31
353.666	-44.31
353.931	-58.31
354.196	-180.31
354.461	-167.31
354.727	-1.31
354.992	-46.31
355.257	-176.31
355.522	-73.31
355.788	-39.31
356.053	27.69
356.318	-112.31
356.583	-125.31
356.848	64.69
357.113	188.69
357.379	-90.31
357.644	-141.31
357.909	53.69
358.174	72.69
358.439	-179.31
358.704	-128.31
358.969	0.69
359.234	12.69
359.499	-171.31
359.765	-77.31
360.03	20.69
360.295	14.69
360.56	-159.31
360.825	-83.31
361.09	121.69
361.355	-87.31
361.62	-115.31
361.885	-75.31
362.15	-95.31
362.415	-62.31
362.679	-149.31
362.944	6.69
363.209	18.69
363.474	26.69
363.739	-35.31
364.004	-122.31
364.269	-66.31
364.534	-20.31
364.799	-84.31
365.063	-75.31
365.328	23.69
365.593	5.69
365.858	-125.31
366.123	-127.31
366.387	8.69
366.652	-57.31
366.917	-164.31
367.182	-111.31
367.447	32.69
367.711	-17.31
367.976	-102.31
368.241	-29.31
368.505	37.69
368.77	-62.31
369.035	-66.31
369.299	-28.31
369.564	-4.31
369.829	-80.31
370.093	-120.31
370.358	-138.31
370.623	-37.31
370.887	-19.31
371.152	-163.31
371.416	-90.31
371.681	-38.31
371.946	-130.31
372.21	-178.31
372.475	-46.31
372.739	-23.31
373.004	-74.31
373.268	-94.31
373.533	-40.31
373.797	2.69
374.062	-15.31
374.326	-176.31
374.591	-83.31
374.855	1.69
375.12	-82.31
375.384	-240.31
375.648	-159.31
375.913	-15.31
376.177	-8.31
376.442	-125.31
376.706	-119.31
376.97	10.69
377.235	-49.31
377.499	-90.31
377.763	-93.31
378.028	-99.31
378.292	-53.31
378.556	-133.31
378.821	-192.31
379.085	-112.31
379.349	-187.31
379.614	-244.31
379.878	-127.31
380.142	53.69
380.406	-34.31
380.671	-58.31
380.935	81.69
381.199	190.69
381.463	37.69
381.727	-12.31
381.991	-70.31
382.256	-11.31
382.52	-54.31
382.784	-38.31
383.048	67.69
383.312	3.69
383.576	-46.31
383.84	-160.31
384.104	-108.31
384.369	-23.31
384.633	-135.31
384.897	-236.31
385.161	-114.31
385.425	1.69
385.689	-71.31
385.953	-132.31
386.217	-156.31
386.481	-56.31
386.745	-39.31
387.009	-86.31
387.273	-133.31
387.537	-84.31
387.801	-67.31
388.064	-127.31
388.328	-34.31
388.592	-8.31
388.856	-83.31
389.12	-144.31
389.384	-74.31
389.648	-35.31
389.912	37.69
390.176	31.69
390.439	114.69
390.703	-43.31
390.967	-86.31
391.231	-177.31
391.495	-132.31
391.758	-56.31
392.022	-51.31
392.286	-190.31
392.55	-146.31
392.813	-25.31
393.077	7.69
393.341	-76.31
393.605	0.69
393.868	-53.31
394.132	-73.31
394.396	-91.31
394.659	35.69
394.923	-28.31
395.187	-95.31
395.45	-109.31
395.714	-60.31
395.978	-38.31
396.241	-38.31
396.505	-113.31
396.768	-47.31
397.032	6.69
397.295	-7.31
397.559	-98.31
397.823	-130.31
398.086	6.69
398.35	-66.31
398.613	-185.31
398.877	-42.31
399.14	77.69
399.404	81.69
399.667	-25.31
399.931	-116.31
400.194	-8.31
400.457	-29.31
400.721	-88.31
400.984	16.69
401.248	-31.31
401.511	-62.31
401.775	-183.31
402.038	-141.31
402.301	55.69
402.565	8.69
402.828	-203.31
403.091	-133.31
403.355	-12.31
403.618	-14.31
403.881	-24.31
404.145	-50.31
404.408	7.69
404.671	-41.31
404.934	-31.31
405.198	-12.31
405.461	-1.31
405.724	17.69
405.987	-25.31
406.251	23.69
406.514	105.69
406.777	-42.31
407.04	-130.31
407.303	-136.31
407.567	16.69
407.83	74.69
408.093	-141.31
408.356	-42.31
408.619	51.69
408.882	80.69
409.145	-30.31
409.408	-71.31
409.672	12.69
409.935	-47.31
410.198	-173.31
410.461	-88.31
410.724	74.69
410.987	12.69
411.25	-139.31
411.513	-24.31
411.776	32.69
412.039	-92.31
412.302	-147.31
412.565	-117.31
412.828	-67.31
413.091	-72.31
413.354	-150.31
413.617	-104.31
413.879	-40.31
414.142	-15.31
414.405	-144.31
414.668	-75.31
414.931	25.69
415.194	5.69
415.457	-127.31
415.72	-54.31
415.983	-10.31
416.245	-11.31
416.508	-116.31
416.771	-145.31
417.034	2.69
417.297	-1.31
417.559	-38.31
417.822	-73.31
418.085	26.69
418.348	9.69
418.61	-156.31
418.873	-138.31
419.136	-96.31
419.399	-113.31
419.661	-86.31
419.924	-106.31
420.187	-20.31
420.449	-42.31
420.712	-112.31
420.975	-157.31
421.237	-51.31
421.5	-55.31
421.762	-19.31
422.025	37.69
422.288	80.69
422.55	-119.31
422.813	-188.31
423.075	-92.31
423.338	-25.31
423.601	-1.31
423.863	-70.31
424.126	-60.31
424.388	59.69
424.651	-4.31
424.913	-64.31
425.176	-88.31
425.438	-63.31
425.701	15.69
425.963	-104.31
426.225	-182.31
426.488	-73.31
426.75	-65.31
427.013	-131.31
427.275	-92.31
427.538	-64.31
427.8	-79.31
428.062	-151.31
428.325	-60.31
428.587	23.69
428.849	-41.31
429.112	-111.31
429.374	-126.31
429.636	-71.31
429.899	0.69
430.161	-113.31
430.423	-82.31
430.686	9.69
430.948	3.69
431.21	-119.31
431.472	-141.31
431.735	-73.31
431.997	-89.31
432.259	-41.31
432.521	-116.31
432.783	-17.31
433.046	-42.31
433.308	-131.31
433.57	-104.31
433.832	119.69
434.094	-71.31
434.356	-187.31
434.618	-114.31
434.881	-39.31
435.143	-92.31
435.405	-68.31
435.667	-31.31
435.929	-23.31
436.191	-74.31
436.453	-155.31
436.715	-59.31
436.977	-2.31
437.239	-61.31
437.501	-180.31
437.763	-139.31
438.025	0.69
438.287	-19.31
438.549	-101.31
438.811	-70.31
439.073	-44.31
439.335	-114.31
439.597	-132.31
439.859	-44.31
440.121	74.69
440.383	-107.31
440.645	-119.31
440.907	-60.31
441.168	-25.31
441.43	-63.31
441.692	-170.31
441.954	-121.31
442.216	-43.31
442.478	-83.31
442.74	-189.31
443.001	-76.31
443.263	68.69
443.525	-3.31
443.787	-140.31
444.048	-109.31
444.31	-76.31
444.572	-74.31
444.834	-107.31
445.095	-89.31
445.357	28.69
445.619	-36.31
445.881	-231.31
446.142	-136.31
446.404	-80.31
446.666	-76.31
446.927	-120.31
447.189	19.69
447.451	48.69
447.712	-23.31
447.974	-222.31
448.235	-191.31
448.497	-32.31
448.759	-123.31
449.02	-177.31
449.282	-191.31
449.543	-35.31
449.805	38.69
450.066	-188.31
450.328	-70.31
450.59	120.69
450.851	-12.31
451.113	-68.31
451.374	-145.31
451.636	-0.31
451.897	16.69
452.158	-59.31
452.42	31.69
452.681	84.69
452.943	-94.31
453.204	-185.31
453.466	-166.31
453.727	-75.31
453.988	-34.31
454.25	-157.31
454.511	-183.31
454.773	-78.31
455.034	73.69
455.295	-148.31
455.557	-158.31
455.818	-62.31
456.079	-53.31
456.341	33.69
456.602	21.69
456.863	29.69
457.124	-58.31
457.386	-157.31
457.647	-183.31
457.908	-98.31
458.169	6.69
458.431	-181.31
458.692	-187.31
458.953	-66.31
459.214	-94.31
459.476	-95.31
459.737	-27.31
459.998	28.69
460.259	-70.31
460.52	-174.31
460.781	-115.31
461.043	30.69
461.304	-88.31
461.565	-198.31
461.826	-150.31
462.087	-43.31
462.348	16.69
462.609	-131.31
462.87	-70.31
463.131	-83.31
463.392	-15.31
463.653	-95.31
463.914	-64.31
464.175	-35.31
464.436	-83.31
464.697	-136.31
464.958	-124.31
465.219	-23.31
465.48	-54.31
465.741	-73.31
466.002	-114.31
466.263	-49.31
466.524	-58.31
466.785	-150.31
467.046	-125.31
467.307	-35.31
467.568	-109.31
467.829	-122.31
468.089	-75.31
468.35	-23.31
468.611	-90.31
468.872	-163.31
469.133	-49.31
469.394	23.69
469.655	67.69
469.915	-112.31
470.176	-191.31
470.437	-137.31
470.698	-73.31
470.958	-128.31
471.219	-184.31
471.48	-96.31
471.741	-96.31
472.001	-179.31
472.262	-132.31
472.523	0.69
472.784	34.69
473.044	-104.31
473.305	-67.31
473.566	28.69
473.826	-1.31
474.087	-110.31
474.348	-98.31
474.608	-44.31
474.869	2.69
475.129	-122.31
475.39	-155.31
475.651	-74.31
475.911	-42.31
476.172	-177.31
476.432	-68.31
476.693	71.69
476.953	-11.31
477.214	-23.31
477.475	-18.31
477.735	-12.31
477.996	8.69
478.256	-183.31
478.517	-166.31
478.777	-59.31
479.038	17.69
479.298	-12.31
479.558	-100.31
479.819	65.69
480.079	61.69
480.34	-54.31
480.6	-127.31
480.861	-11.31
481.121	-38.31
481.381	-140.31
481.642	-69.31
481.902	-67.31
482.162	-120.31
482.423	-94.31
482.683	-18.31
482.943	5.69
483.204	-88.31
483.464	-107.31
483.724	-94.31
483.985	-45.31
484.245	-11.31
484.505	-91.31
484.765	-11.31
485.026	56.69
485.286	27.69
485.546	-56.31
485.806	-2.31
486.067	20.69
486.327	-92.31
486.587	-166.31
486.847	-139.31
487.107	-29.31
487.368	-18.31
487.628	-80.31
487.888	-106.31
488.148	-4.31
488.408	-88.31
488.668	-64.31
488.928	-16.31
489.188	-12.31
489.449	65.69
489.709	-68.31
489.969	-95.31
490.229	-1.31
490.489	-39.31
490.749	-119.31
491.009	-175.31
491.269	-107.31
491.529	-102.31
491.789	-166.31
492.049	-79.31
492.309	35.69
492.569	-78.31
492.829	-118.31
493.089	-120.31
493.349	45.69
493.609	-42.31
493.869	-125.31
494.129	-58.31
494.389	55.69
494.648	-76.31
494.908	-173.31
495.168	-81.31
495.428	44.69
495.688	-54.31
495.948	-202.31
496.208	-180.31
496.467	-105.31
496.727	-65.31
496.987	-87.31
497.247	-95.31
497.507	-0.31
497.767	17.69
498.026	-155.31
498.286	-50.31
498.546	147.69
498.806	12.69
499.065	63.69
499.325	-31.31
499.585	-50.31
499.845	-32.31
500.104	-42.31
500.364	66.69
500.624	2.69
500.883	-75.31
501.143	-27.31
501.403	32.69
501.662	95.69
501.922	11.69
502.182	-127.31
502.441	-127.31
502.701	-68.31
502.96	47.69
503.22	-38.31
503.48	-87.31
503.739	-26.31
503.999	-56.31
504.258	-131.31
504.518	-63.31
504.777	38.69
505.037	-25.31
505.296	-97.31
505.556	-104.31
505.815	32.69
506.075	99.69
506.334	-9.31
506.594	-158.31
506.853	-101.31
507.113	-98.31
507.372	-228.31
507.632	-162.31
507.891	-52.31
508.151	6.69
508.41	-156.31
508.669	-122.31
508.929	7.69
509.188	-50.31
509.447	-113.31
509.707	-136.31
509.966	-50.31
510.226	-31.31
510.485	-77.31
510.744	-72.31
511.004	17.69
511.263	-66.31
511.522	-151.31
511.781	-118.31
512.041	19.69
512.3	-46.31
512.559	-31.31
512.818	18.69
513.078	12.69
513.337	-14.31
513.596	-85.31
513.855	-104.31
514.115	8.69
514.374	-26.31
514.633	-132.31
514.892	-164.31
515.151	-16.31
515.41	25.69
515.67	-85.31
515.929	-124.31
516.188	-26.31
516.447	-56.31
516.706	-152.31
516.965	-108.31
517.224	-59.31
517.483	-62.31
517.743	-96.31
518.002	-74.31
518.261	11.69
518.52	-27.31
518.779	-127.31
519.038	-109.31
519.297	-64.31
519.556	-88.31
519.815	-182.31
520.074	-162.31
520.333	-52.31
520.592	-85.31
520.851	-155.31
521.11	-26.31
521.369	130.69
521.628	-49.31
521.887	-150.31
522.145	-93.31
522.404	-40.31
522.663	-49.31
522.922	-187.31
523.181	-164.31
523.44	-34.31
523.699	-3.31
523.958	-162.31
524.217	-144.31
524.475	-115.31
524.734	-149.31
524.993	-171.31
525.252	-106.31
525.511	-22.31
525.769	-74.31
526.028	-151.31
526.287	-102.31
526.546	-39.31
526.805	-56.31
527.063	-140.31
527.322	-169.31
527.581	-74.31
527.839	-68.31
528.098	-72.31
528.357	-40.31
528.616	-28.31
528.874	-47.31
529.133	-102.31
529.392	-62.31
529.65	-21.31
529.909	-46.31
530.168	-150.31
530.426	-114.31
530.685	19.69
530.943	-29.31
531.202	-155.31
531.461	-148.31
531.719	-0.31
531.978	-59.31
532.236	-143.31
532.495	-47.31
532.753	5.69
533.012	-94.31
533.271	-166.31
533.529	-164.31
533.788	-57.31
534.046	-151.31
534.305	-185.31
534.563	34.69
534.822	99.69
535.08	-20.31
535.338	-113.31
535.597	-62.31
535.855	19.69
536.114	-47.31
536.372	-149.31
536.631	-86.31
536.889	11.69
537.147	-34.31
537.406	-194.31
537.664	-64.31
537.923	-27.31
538.181	-19.31
538.439	-162.31
538.698	-36.31
538.956	-30.31
539.214	-78.31
539.473	-124.31
539.731	-67.31
539.989	7.69
540.248	-57.31
540.506	-142.31
540.764	-121.31
541.022	-5.31
541.281	19.69
541.539	-115.31
541.797	-162.31
542.055	-19.31
542.314	53.69
542.572	3.69
542.83	-132.31
543.088	-14.31
543.346	-69.31
543.604	-165.31
543.863	-79.31
544.121	55.69
544.379	-15.31
544.637	-126.31
544.895	-9.31
545.153	99.69
545.411	-54.31
545.67	-235.31
545.928	-190.31
546.186	-40.31
546.444	19.69
546.702	-69.31
546.96	-36.31
547.218	11.69
547.476	-55.31
547.734	-148.31
547.992	-79.31
548.25	18.69
548.508	-65.31
548.766	-94.31
549.024	-90.31
549.282	-69.31
549.54	-73.31
549.798	-69.31
550.056	-101.31
550.314	3.69
550.572	-32.31
550.83	-177.31
551.088	-79.31
551.346	42.69
551.603	27.69
551.861	-146.31
552.119	-41.31
552.377	64.69
552.635	-51.31
552.893	-182.31
553.151	-162.31
553.409	-35.31
553.666	-45.31
553.924	-137.31
554.182	-134.31
554.44	9.69
554.698	61.69
554.955	-87.31
555.213	-93.31
555.471	17.69
555.729	-33.31
555.986	-208.31
556.244	-114.31
556.502	93.69
556.76	-27.31
557.017	-98.31
557.275	-42.31
557.533	83.69
557.79	40.69
558.048	-167.31
558.306	-74.31
558.563	15.69
558.821	-83.31
559.079	-113.31
559.336	-76.31
559.594	-32.31
559.852	-122.31
560.109	-165.31
560.367	-51.31
560.624	-0.31
560.882	-55.31
561.14	-94.31
561.397	32.69
561.655	-49.31
561.912	-29.31
562.17	-145.31
562.427	-69.31
562.685	-12.31
562.942	-18.31
563.2	-133.31
563.457	-61.31
563.715	-4.31
563.972	35.69
564.23	-143.31
564.487	-171.31
564.745	-30.31
565.002	24.69
565.26	-81.31
565.517	-67.31
565.774	-3.31
566.032	1.69
566.289	-55.31
566.547	-28.31
566.804	92.69
567.061	67.69
567.319	-28.31
567.576	83.69
567.833	224.69
568.091	284.69
568.348	108.69
568.605	166.69
568.863	248.69
569.12	251.69
569.377	173.69
569.635	210.69
569.892	294.69
570.149	329.69
570.406	266.69
570.664	389.69
570.921	580.69
571.178	557.69
571.435	628.69
571.693	712.69
571.95	882.69
572.207	903.69
572.464	977.69
572.721	1158.69
572.979	1359.69
573.236	1383.69
573.493	1416.69
573.75	1553.69
574.007	1830.69
574.264	1875.69
574.521	1949.69
574.779	2117.69
575.036	2320.69
575.293	2447.69
575.55	2532.69
575.807	2714.69
576.064	3013.69
576.321	3142.69
576.578	3166.69
576.835	3374.69
577.092	3731.69
577.349	3824.69
577.606	3763.69
577.863	4007.69
578.12	4281.69
578.377	4455.69
578.634	4393.69
578.891	4680.69
579.148	4919.69
579.405	4994.69
579.662	5100.69
579.919	5301.69
580.176	5459.69
580.433	5599.69
580.69	5666.69
580.947	5828.69
581.204	6026.69
581.461	6067.69
581.717	6068.69
581.974	6354.69
582.231	6489.69
582.488	6444.69
582.745	6353.69
583.002	6482.69
583.259	6818.69
583.515	6867.69
583.772	6755.69
584.029	6877.69
584.286	7026.69
584.543	6859.69
584.799	6924.69
585.056	7099.69
585.313	7238.69
585.57	7267.69
585.826	7146.69
586.083	7289.69
586.34	7493.69
586.597	7337.69
586.853	7213.69
587.11	7272.69
587.367	7463.69
587.623	7541.69
587.88	7487.69
588.137	7408.69
588.393	7528.69
588.65	7534.69
588.907	7416.69
589.163	7454.69
589.42	7523.69
589.677	7499.69
589.933	7421.69
590.19	7478.69
590.446	7626.69
590.703	7641.69
590.96	7368.69
591.216	7385.69
591.473	7517.69
591.729	7494.69
591.986	7527.69
592.242	7583.69
592.499	7730.69
592.755	7554.69
593.012	7404.69
593.268	7517.69
593.525	7546.69
593.781	7587.69
594.038	7497.69
594.294	7562.69
594.551	7536.69
594.807	7481.69
595.064	7558.69
595.32	7539.69
595.576	7548.69
595.833	7582.69
596.089	7494.69
596.346	7602.69
596.602	7645.69
596.858	7674.69
597.115	7497.69
597.371	7556.69
597.628	7535.69
597.884	7487.69
598.14	7454.69
598.397	7586.69
598.653	7674.69
598.909	7546.69
599.166	7379.69
599.422	7436.69
599.678	7545.69
599.934	7513.69
600.191	7374.69
600.447	7474.69
600.703	7521.69
600.959	7449.69
601.216	7295.69
601.472	7323.69
601.728	7439.69
601.984	7385.69
602.241	7325.69
602.497	7404.69
602.753	7564.69
603.009	7485.69
603.265	7365.69
603.521	7520.69
603.778	7616.69
604.034	7427.69
604.29	7361.69
604.546	7399.69
604.802	7486.69
605.058	7422.69
605.314	7351.69
605.571	7428.69
605.827	7447.69
606.083	7433.69
606.339	7335.69
606.595	7441.69
606.851	7472.69
607.107	7500.69
607.363	7297.69
607.619	7303.69
607.875	7507.69
608.131	7485.69
608.387	7251.69
608.643	7341.69
608.899	7413.69
609.155	7385.69
609.411	7334.69
609.667	7341.69
609.923	7331.69
610.179	7332.69
610.435	7138.69
610.691	7248.69
610.947	7415.69
611.203	7284.69
611.459	7218.69
611.714	7283.69
611.97	7430.69
612.226	7310.69
612.482	7080.69
612.738	7199.69
612.994	7447.69
613.25	7287.69
613.505	7092.69
613.761	7115.69
614.017	7211.69
614.273	7220.69
614.529	7149.69
614.785	7066.69
615.04	7169.69
615.296	7190.69
615.552	7123.69
615.808	7109.69
616.063	7170.69
616.319	7167.69
616.575	7022.69
616.831	7088.69
617.086	7289.69
617.342	7237.69
617.598	7055.69
617.854	7072.69
618.109	7148.69
618.365	6965.69
618.621	6883.69
618.876	6981.69
619.132	7054.69
619.388	6978.69
619.643	6829.69
619.899	6907.69
620.155	6946.69
620.41	6985.69
620.666	6788.69
620.921	6811.69
621.177	6970.69
621.433	7003.69
621.688	6894.69
621.944	6817.69
622.199	6757.69
622.455	6773.69
622.71	6636.69
622.966	6676.69
623.221	6688.69
623.477	6674.69
623.732	6640.69
623.988	6587.69
624.243	6689.69
624.499	6692.69
624.754	6537.69
625.01	6551.69
625.265	6601.69
625.521	6721.69
625.776	6555.69
626.032	6527.69
626.287	6537.69
626.543	6522.69
626.798	6465.69
627.053	6440.69
627.309	6515.69
627.564	6397.69
627.82	6397.69
628.075	6505.69
628.33	6418.69
628.586	6270.69
628.841	6158.69
629.096	6294.69
629.352	6339.69
629.607	6208.69
629.862	6157.69
630.118	6263.69
630.373	6207.69
630.628	6180.69
630.884	6067.69
631.139	6125.69
631.394	6174.69
631.649	6113.69
631.905	6010.69
632.16	6067.69
632.415	6234.69
632.67	6002.69
632.926	5868.69
633.181	5858.69
633.436	6031.69
633.691	5957.69
633.946	5816.69
634.202	5796.69
634.457	5881.69
634.712	5836.69
634.967	5746.69
635.222	5737.69
635.477	5788.69
635.733	5744.69
635.988	5651.69
636.243	5689.69
636.498	5823.69
636.753	5737.69
637.008	5516.69
637.263	5604.69
637.518	5701.69
637.773	5663.69
638.028	5581.69
638.283	5559.69
638.539	5660.69
638.794	5603.69
639.049	5458.69
639.304	5447.69
639.559	5448.69
639.814	5464.69
640.069	5357.69
640.324	5359.69
640.579	5500.69
640.834	5452.69
641.089	5312.69
641.344	5352.69
641.598	5534.69
641.853	5430.69
642.108	5197.69
642.363	5120.69
642.618	5322.69
642.873	5223.69
643.128	5097.69
643.383	5141.69
643.638	5197.69
643.893	5271.69
644.148	5213.69
644.402	5080.69
644.657	5234.69
644.912	5126.69
645.167	5049.69
645.422	5132.69
645.677	5116.69
645.931	5125.69
646.186	5110.69
646.441	5014.69
646.696	4953.69
646.951	4978.69
647.205	4967.69
647.46	4938.69
647.715	4967.69
647.97	5108.69
648.224	5162.69
648.479	5001.69
648.734	5085.69
648.989	5017.69
649.243	4875.69
649.498	4839.69
649.753	4872.69
650.007	4959.69
650.262	4830.69
650.517	4839.69
650.771	4854.69
651.026	4760.69
651.281	4647.69
651.535	4800.69
651.79	4822.69
652.045	4779.69
652.299	4679.69
652.554	4689.69
652.809	4784.69
653.063	4933.69
653.318	4816.69
653.572	4688.69
653.827	4796.69
654.081	4704.69
654.336	4593.69
654.591	4583.69
654.845	4694.69
655.1	4626.69
655.354	4580.69
655.609	4634.69
655.863	4747.69
656.118	4773.69
656.372	4571.69
656.627	4527.69
656.881	4647.69
657.136	4571.69
657.39	4476.69
657.645	4608.69
657.899	4773.69
658.153	4646.69
658.408	4529.69
658.662	4565.69
658.917	4582.69
659.171	4487.69
659.426	4436.69
659.68	4513.69
659.934	4651.69
660.189	4618.69
660.443	4489.69
660.697	4608.69
660.952	4702.69
661.206	4540.69
661.46	4386.69
661.715	4519.69
661.969	4609.69
662.223	4573.69
662.478	4476.69
662.732	4511.69
662.986	4543.69
663.241	4569.69
663.495	4429.69
663.749	4504.69
664.003	4647.69
664.258	4546.69
664.512	4464.69
664.766	4544.69
665.02	4629.69
665.275	4619.69
665.529	4426.69
665.783	4440.69
666.037	4519.69
666.291	4521.69
666.546	4463.69
666.8	4470.69
667.054	4473.69
667.308	4584.69
667.562	4413.69
667.816	4471.69
668.071	4609.69
668.325	4501.69
668.579	4470.69
668.833	4535.69
669.087	4656.69
669.341	4594.69
669.595	4478.69
669.849	4555.69
670.103	4630.69
670.357	4586.69
670.612	4512.69
670.866	4486.69
671.12	4586.69
671.374	4579.69
671.628	4536.69
671.882	4567.69
672.136	4653.69
672.39	4680.69
672.644	4481.69
672.898	4604.69
673.152	4761.69
673.406	4711.69
673.66	4639.69
673.914	4662.69
674.168	4708.69
674.422	4632.69
674.675	4541.69
674.929	4643.69
675.183	4760.69
675.437	4698.69
675.691	4644.69
675.945	4711.69
676.199	4824.69
676.453	4697.69
676.707	4580.69
676.961	4630.69
677.214	4752.69
677.468	4758.69
677.722	4775.69
677.976	4735.69
678.23	4845.69
678.484	4827.69
678.737	4674.69
678.991	4710.69
679.245	4809.69
679.499	4810.69
679.753	4745.69
680.006	4783.69
680.26	4912.69
680.514	4927.69
680.768	4773.69
681.021	4873.69
681.275	4886.69
681.529	4886.69
681.783	4839.69
682.036	4854.69
682.29	4837.69
682.544	4879.69
682.797	4775.69
683.051	4767.69
683.305	4881.69
683.559	4901.69
683.812	4902.69
684.066	4917.69
684.32	5002.69
684.573	4987.69
684.827	4970.69
685.08	4975.69
685.334	5105.69
685.588	5033.69
685.841	4896.69
686.095	5014.69
686.348	5063.69
686.602	5061.69
686.856	4992.69
687.109	4953.69
687.363	5001.69
687.616	4950.69
687.87	4838.69
688.123	4914.69
688.377	5035.69
688.63	5083.69
688.884	5031.69
689.137	5124.69
689.391	5147.69
689.644	5007.69
689.898	4895.69
690.151	4961.69
690.405	5092.69
690.658	5095.69
690.912	5027.69
691.165	4995.69
691.419	5088.69
691.672	5147.69
691.926	5052.69
692.179	5019.69
692.432	5109.69
692.686	5056.69
692.939	4972.69
693.193	5007.69
693.446	5174.69
693.699	5152.69
693.953	5096.69
694.206	5096.69
694.459	5189.69
694.713	5172.69
694.966	5026.69
695.219	5038.69
695.473	5165.69
695.726	5082.69
695.979	4995.69
696.233	5097.69
696.486	5145.69
696.739	5106.69
696.992	4996.69
697.246	5140.69
697.499	5236.69
697.752	5055.69
698.006	5003.69
698.259	5064.69
698.512	5115.69
698.765	5060.69
699.018	5001.69
699.272	5085.69
699.525	5079.69
699.778	5058.69
700.031	4981.69
700.284	5020.69
700.538	5107.69
700.791	5092.69
701.044	5059.69
701.297	5034.69
701.55	5074.69
701.803	5019.69
702.056	4943.69
702.31	5018.69
702.563	5124.69
702.816	4986.69
703.069	4821.69
703.322	4961.69
703.575	5093.69
703.828	5101.69
704.081	4970.69
704.334	4907.69
704.587	5047.69
704.84	4982.69
705.093	4945.69
705.346	5035.69
705.599	5022.69
705.853	5037.69
706.106	5079.69
706.359	5322.69
706.612	4999.69
706.865	5082.69
707.118	4913.69
707.37	4932.69
707.623	5057.69
707.876	5042.69
708.129	4951.69
708.382	5023.69
708.635	5136.69
708.888	4982.69
709.141	4863.69
709.394	4944.69
709.647	5059.69
709.9	4915.69
710.153	4739.69
710.406	4874.69
710.658	4979.69
710.911	4888.69
711.164	4726.69
711.417	4733.69
711.67	4814.69
711.923	4862.69
712.176	4775.69
712.428	4789.69
712.681	4873.69
712.934	4860.69
713.187	4745.69
713.44	4660.69
713.692	4812.69
713.945	4780.69
714.198	4710.69
714.451	4673.69
714.704	4788.69
714.956	4785.69
715.209	4824.69
715.462	4761.69
715.715	4758.69
715.967	4699.69
716.22	4571.69
716.473	4624.69
716.725	4762.69
716.978	4722.69
717.231	4646.69
717.484	4655.69
717.736	4609.69
717.989	4565.69
718.242	4489.69
718.494	4586.69
718.747	4697.69
718.999	4599.69
719.252	4574.69
719.505	4556.69
719.757	4551.69
720.01	4537.69
720.263	4491.69
720.515	4511.69
720.768	4594.69
721.02	4576.69
721.273	4419.69
721.525	4339.69
721.778	4478.69
722.031	4568.69
722.283	4376.69
722.536	4365.69
722.788	4447.69
723.041	4397.69
723.293	4302.69
723.546	4289.69
723.798	4371.69
724.051	4443.69
724.303	4374.69
724.556	4372.69
724.808	4458.69
725.061	4435.69
725.313	4282.69
725.566	4303.69
725.818	4321.69
726.071	4287.69
726.323	4141.69
726.575	4173.69
726.828	4319.69
727.08	4307.69
727.333	4173.69
727.585	4123.69
727.837	4203.69
728.09	4194.69
728.342	4025.69
728.595	4134.69
728.847	4303.69
729.099	4085.69
729.352	4103.69
729.604	4063.69
729.856	4161.69
730.109	4154.69
730.361	4029.69
730.613	4077.69
730.866	4154.69
731.118	4055.69
731.37	3977.69
731.622	3970.69
731.875	4050.69
732.127	4081.69
732.379	4008.69
732.631	4056.69
732.884	4042.69
733.136	3958.69
733.388	3819.69
733.64	3869.69
733.893	4031.69
734.145	3935.69
734.397	3764.69
734.649	3808.69
734.901	3919.69
735.154	3833.69
735.406	3736.69
735.658	3811.69
735.91	3931.69
736.162	3885.69
736.414	3768.69
736.667	3823.69
736.919	3847.69
737.171	3705.69
737.423	3667.69
737.675	3704.69
737.927	3827.69
738.179	3770.69
738.431	3720.69
738.684	3706.69
738.936	3789.69
739.188	3790.69
739.44	3539.69
739.692	3548.69
739.944	3604.69
740.196	3629.69
740.448	3605.69
740.7	3562.69
740.952	3593.69
741.204	3611.69
741.456	3523.69
741.708	3571.69
741.96	3555.69
742.212	3576.69
742.464	3581.69
742.716	3464.69
742.968	3532.69
743.22	3461.69
743.472	3364.69
743.724	3472.69
743.976	3616.69
744.228	3615.69
744.48	3411.69
744.732	3415.69
744.983	3539.69
745.235	3496.69
745.487	3392.69
745.739	3437.69
745.991	3447.69
746.243	3520.69
746.495	3340.69
746.747	3369.69
746.999	3465.69
747.25	3430.69
747.502	3381.69
747.754	3501.69
748.006	3414.69
748.258	3512.69
748.51	3545.69
748.761	3375.69
749.013	3421.69
749.265	3466.69
749.517	3475.69
749.768	3530.69
750.02	3521.69
750.272	3407.69
750.524	3241.69
750.776	3233.69
751.027	3452.69
751.279	3440.69
751.531	3212.69
751.782	3288.69
752.034	3419.69
752.286	3281.69
752.538	3134.69
752.789	3255.69
753.041	3349.69
753.293	3309.69
753.544	3209.69
753.796	3223.69
754.048	3340.69
754.299	3286.69
754.551	3252.69
754.803	3216.69
755.054	3207.69
755.306	3257.69
755.558	3117.69
755.809	3155.69
756.061	3296.69
756.312	3200.69
756.564	3175.69
756.816	3201.69
757.067	3157.69
757.319	3105.69
757.57	3060.69
757.822	3158.69
758.073	3235.69
758.325	3165.69
758.577	3050.69
758.828	3057.69
759.08	3263.69
759.331	3241.69
759.583	3058.69
759.834	3126.69
760.086	3079.69
760.337	3058.69
760.589	3013.69
760.84	2988.69
761.092	3051.69
761.343	3002.69
761.595	2859.69
761.846	3015.69
762.097	3044.69
762.349	2988.69
762.6	2803.69
762.852	2968.69
763.103	3108.69
763.355	2962.69
763.606	2869.69
763.857	2989.69
764.109	3079.69
764.36	2989.69
764.612	2888.69
764.863	2983.69
765.114	2987.69
765.366	2836.69
765.617	2753.69
765.868	2840.69
766.12	2993.69
766.371	2963.69
766.622	2774.69
766.874	2853.69
767.125	2973.69
767.376	2869.69
767.628	2800.69
767.879	2821.69
768.13	2879.69
768.381	2865.69
768.633	2819.69
768.884	2824.69
769.135	2888.69
769.386	2876.69
769.638	2787.69
769.889	2816.69
770.14	2862.69
770.391	2767.69
770.643	2685.69
770.894	2643.69
771.145	2763.69
771.396	2712.69
771.647	2607.69
771.899	2705.69
772.15	2811.69
772.401	2776.69
772.652	2622.69
772.903	2668.69
773.154	3001.69
773.406	3201.69
773.657	2649.69
773.908	2633.69
774.159	2722.69
774.41	2715.69
774.661	2565.69
774.912	2611.69
775.163	2786.69
775.414	2756.69
775.666	2515.69
775.917	2560.69
776.168	2582.69
776.419	2615.69
776.67	2539.69
776.921	2485.69
777.172	2549.69
777.423	2600.69
777.674	2628.69
777.925	2611.69
778.176	2547.69
778.427	2517.69
778.678	2432.69
778.929	2481.69
779.18	2572.69
779.431	2474.69
779.682	2474.69
779.933	2550.69
780.184	2555.69
780.435	2494.69
780.686	2451.69
780.937	2488.69
781.188	2501.69
781.439	2605.69
781.69	2542.69
781.941	2463.69
782.191	2444.69
782.442	2429.69
782.693	2367.69
782.944	2340.69
783.195	2429.69
783.446	2463.69
783.697	2483.69
783.948	2359.69
784.199	2373.69
784.449	2324.69
784.7	2348.69
784.951	2388.69
785.202	2495.69
785.453	2458.69
785.704	2291.69
785.954	2277.69
786.205	2385.69
786.456	2302.69
786.707	2211.69
786.958	2265.69
787.208	2342.69
787.459	2277.69
787.71	2291.69
787.961	2304.69
788.211	2329.69
788.462	2317.69
788.713	2256.69
788.964	2243.69
789.214	2322.69
789.465	2333.69
789.716	2292.69
789.967	2283.69
790.217	2228.69
790.468	2199.69
790.719	2128.69
790.969	2168.69
791.22	2251.69
791.471	2318.69
791.721	2317.69
791.972	2223.69
792.223	2292.69
792.473	2216.69
792.724	2201.69
792.975	2149.69
793.225	2226.69
793.476	2207.69
793.726	2120.69
793.977	2204.69
794.228	2325.69
794.478	2203.69
794.729	2090.69
794.979	2224.69
795.23	2229.69
795.481	2175.69
795.731	2063.69
795.982	2151.69
796.232	2150.69
796.483	2081.69
796.733	2026.69
796.984	2101.69
797.234	2153.69
797.485	2166.69
797.735	1994.69
797.986	2014.69
798.236	2148.69
798.487	2080.69
798.737	2075.69
798.988	2142.69
799.238	2188.69
799.489	2070.69
799.739	1949.69
799.99	2047.69
800.24	2159.69
800.491	2186.69
800.741	2037.69
800.991	1957.69
801.242	2001.69
801.492	2034.69
801.743	1965.69
801.993	2213.69
802.244	2411.69
802.494	2022.69
802.744	1958.69
802.995	1994.69
803.245	2038.69
803.495	2007.69
803.746	1932.69
803.996	2003.69
804.246	2005.69
804.497	2038.69
804.747	1900.69
804.997	1934.69
805.248	1928.69
805.498	1893.69
805.748	1936.69
805.999	1822.69
806.249	1884.69
806.499	1890.69
806.75	1804.69
807	1832.69
807.25	1904.69
807.5	1870.69
807.751	1884.69
808.001	1927.69
808.251	1945.69
808.501	2024.69
808.752	2002.69
809.002	1950.69
809.252	1915.69
809.502	1863.69
809.752	1838.69
810.003	1761.69
810.253	1832.69
810.503	1884.69
810.753	1916.69
811.003	1898.69
811.254	1925.69
811.504	1857.69
811.754	1820.69
812.004	1823.69
812.254	2061.69
812.504	1871.69
812.754	1787.69
813.005	1852.69
813.255	1936.69
813.505	1845.69
813.755	1738.69
814.005	1795.69
814.255	1808.69
814.505	1792.69
814.755	1655.69
815.005	1711.69
815.255	1842.69
815.505	1831.69
815.756	1842.69
816.006	1811.69
816.256	1749.69
816.506	1712.69
816.756	1636.69
817.006	1675.69
817.256	1785.69
817.506	1776.69
817.756	1685.69
818.006	1695.69
818.256	1770.69
818.506	1762.69
818.756	1612.69
819.006	1661.69
819.256	1775.69
819.506	1718.69
819.756	1641.69
820.006	1722.69
820.255	1769.69
820.505	1743.69
820.755	1590.69
821.005	1636.69
821.255	1767.69
821.505	1710.69
821.755	1619.69
822.005	1696.69
822.255	1744.69
822.505	1673.69
822.755	1687.69
823.004	1549.69
823.254	1577.69
823.504	1668.69
823.754	1649.69
824.004	1579.69
824.254	1671.69
824.504	1664.69
824.753	1735.69
825.003	1712.69
825.253	1735.69
825.503	1599.69
825.753	1580.69
826.002	1654.69
826.252	1837.69
826.502	1657.69
826.752	1581.69
827.002	1589.69
827.251	1665.69
827.501	1608.69
827.751	1545.69
828.001	1558.69
828.25	1664.69
828.5	1510.69
828.75	1451.69
829	1562.69
829.249	1692.69
829.499	1555.69
829.749	1537.69
829.998	1605.69
830.248	1621.69
830.498	1506.69
830.748	1514.69
830.997	1541.69
831.247	1617.69
831.497	1621.69
831.746	1529.69
831.996	1609.69
832.246	1734.69
832.495	1722.69
832.745	1461.69
832.994	1467.69
833.244	1637.69
833.494	1527.69
833.743	1416.69
833.993	1477.69
834.243	1528.69
834.492	1505.69
834.742	1486.69
834.991	1456.69
835.241	1629.69
835.49	1498.69
835.74	1395.69
835.99	1486.69
836.239	1581.69
836.489	1569.69
836.738	1458.69
836.988	1354.69
837.237	1497.69
837.487	1597.69
837.736	1448.69
837.986	1439.69
838.235	1522.69
838.485	1445.69
838.734	1399.69
838.984	1469.69
839.233	1430.69
839.483	1346.69
839.732	1325.69
839.982	1418.69
840.231	1472.69
840.481	1440.69
840.73	1309.69
840.979	1382.69
841.229	1402.69
841.478	1384.69
841.728	1282.69
841.977	1271.69
842.227	1346.69
842.476	1302.69
842.725	1266.69
842.975	1316.69
843.224	1432.69
843.474	1465.69
843.723	1363.69
843.972	1363.69
844.222	1390.69
844.471	1411.69
844.72	1302.69
844.97	1306.69
845.219	1393.69
845.468	1400.69
845.718	1325.69
845.967	1381.69
846.216	1407.69
846.466	1437.69
846.715	1301.69
846.964	1299.69
847.214	1283.69
847.463	1252.69
847.712	1282.69
847.961	1281.69
848.211	1346.69
848.46	1313.69
848.709	1271.69
848.958	1222.69
849.208	1259.69
849.457	1262.69
849.706	1271.69
849.955	1257.69
850.205	1253.69
850.454	1377.69
850.703	1384.69
850.952	1317.69
851.201	1365.69
851.451	1302.69
851.7	1285.69
851.949	1158.69
852.198	1280.69
852.447	1257.69
852.696	1180.69
852.946	1217.69
853.195	1374.69
853.444	1341.69
853.693	1126.69
853.942	1131.69
854.191	1210.69
854.44	1251.69
854.689	1207.69
854.939	1138.69
855.188	1119.69
855.437	1131.69
855.686	1100.69
855.935	1172.69
856.184	1227.69
856.433	1243.69
856.682	1176.69
856.931	1188.69
857.18	1219.69
857.429	1145.69
857.678	1079.69
857.927	1139.69
858.176	1151.69
858.425	1081.69
858.674	1021.69
858.924	1113.69
859.173	1147.69
859.422	1162.69
859.671	1016.69
859.92	1076.69
860.169	1126.69
860.417	1172.69
860.666	1068.69
860.915	1038.69
861.164	1112.69
861.413	1043.69
861.662	972.69
861.911	1016.69
862.16	1179.69
862.409	1137.69
862.658	968.69
862.907	1022.69
863.156	1110.69
863.405	1104.69
863.654	1017.69
863.903	990.69
864.151	1074.69
864.4	1088.69
864.649	1037.69
864.898	1075.69
865.147	1106.69
865.396	1137.69
865.645	1006.69
865.894	1048.69
866.142	1159.69
866.391	1036.69
866.64	941.69
866.889	1034.69
867.138	1191.69
867.387	1091.69
867.635	975.69
867.884	1019.69
868.133	1115.69
868.382	1032.69
868.631	904.69
868.879	900.69
869.128	1024.69
869.377	1021.69
869.626	969.69
869.874	971.69
870.123	1059.69
870.372	997.69
870.621	876.69
870.869	919.69
871.118	1030.69
871.367	1011.69
871.616	873.69
871.864	969.69
872.113	1036.69
872.362	1003.69
872.61	940.69
872.859	986.69
873.108	1048.69
873.357	957.69
873.605	832.69
873.854	840.69
874.103	895.69
874.351	917.69
874.6	877.69
874.848	902.69
875.097	938.69
875.346	968.69
875.594	832.69
875.843	953.69
876.092	1099.69
876.34	956.69
876.589	847.69
876.837	774.69
877.086	844.69
877.335	912.69
877.583	877.69
877.832	919.69
878.08	1033.69
878.329	903.69
878.578	824.69
878.826	860.69
879.075	959.69
879.323	957.69
879.572	875.69
879.82	1026.69
880.069	957.69
880.317	937.69
880.566	803.69
880.814	884.69
881.063	992.69
881.311	910.69
881.56	918.69
881.808	819.69
882.057	897.69
882.305	871.69
882.554	879.69
882.802	792.69
883.051	836.69
883.299	845.69
883.548	786.69
883.796	867.69
884.045	853.69
884.293	804.69
884.541	689.69
884.79	689.69
885.038	783.69
885.287	802.69
885.535	834.69
885.783	827.69
886.032	759.69
886.28	726.69
886.529	703.69
886.777	778.69
887.025	922.69
887.274	794.69
887.522	725.69
887.77	739.69
888.019	746.69
888.267	704.69
888.516	639.69
888.764	681.69
889.012	773.69
889.261	766.69
889.509	671.69
889.757	713.69
890.005	749.69
890.254	680.69
890.502	700.69
890.75	913.69
890.999	904.69
891.247	800.69
891.495	763.69
891.743	745.69
891.992	870.69
892.24	751.69
892.488	639.69
892.737	666.69
892.985	753.69
893.233	721.69
893.481	686.69
893.729	675.69
893.978	836.69
894.226	844.69
894.474	668.69
894.722	662.69
894.97	725.69
895.219	699.69
895.467	689.69
895.715	726.69
895.963	708.69
896.211	659.69
896.46	576.69
896.708	701.69
896.956	784.69
897.204	818.69
897.452	727.69
897.7	676.69
897.948	736.69
898.197	685.69
898.445	610.69
898.693	624.69
898.941	705.69
899.189	723.69
899.437	664.69
899.685	720.69
899.933	660.69
900.181	669.69
900.43	589.69
900.678	614.69
900.926	695.69
901.174	640.69
901.422	608.69
901.67	636.69
901.918	679.69
902.166	646.69
902.414	511.69
902.662	544.69
902.91	661.69
903.158	641.69
903.406	581.69
903.654	601.69
903.902	637.69
904.15	621.69
904.398	477.69
904.646	568.69
904.894	669.69
905.142	661.69
905.39	613.69
905.638	540.69
905.886	576.69
906.134	572.69
906.382	564.69
906.63	535.69
906.878	632.69
907.126	608.69
907.374	537.69
907.622	569.69
907.869	672.69
908.117	628.69
908.365	565.69
908.613	551.69
908.861	567.69
909.109	514.69
909.357	473.69
909.605	546.69
909.853	615.69
910.1	549.69
910.348	403.69
910.596	443.69
910.844	635.69
911.092	661.69
911.34	528.69
911.588	547.69
911.835	587.69
912.083	566.69
912.331	555.69
912.579	592.69
912.827	748.69
913.075	619.69
913.322	489.69
913.57	496.69
913.818	623.69
914.066	543.69
914.313	474.69
914.561	547.69
914.809	563.69
915.057	511.69
915.305	498.69
915.552	503.69
915.8	596.69
916.048	496.69
916.296	420.69
916.543	520.69
916.791	609.69
917.039	547.69
917.286	420.69
917.534	436.69
917.782	568.69
918.03	489.69
918.277	377.69
918.525	388.69
918.773	500.69
919.02	471.69
919.268	421.69
919.516	471.69
919.763	453.69
920.011	451.69
920.259	364.69
920.506	452.69
920.754	546.69
921.002	539.69
921.249	485.69
921.497	428.69
921.745	469.69
921.992	477.69
922.24	336.69
922.487	474.69
922.735	666.69
922.983	570.69
923.23	450.69
923.478	409.69
923.725	499.69
923.973	497.69
924.221	465.69
924.468	507.69
924.716	488.69
924.963	462.69
925.211	401.69
925.458	464.69
925.706	571.69
925.953	588.69
926.201	394.69
926.448	387.69
926.696	490.69
926.944	467.69
927.191	396.69
927.439	390.69
927.686	431.69
927.934	461.69
928.181	335.69
928.429	335.69
928.676	407.69
928.923	350.69
929.171	301.69
929.418	455.69
929.666	510.69
929.913	469.69
930.161	277.69
930.408	315.69
930.656	393.69
930.903	435.69
931.151	312.69
931.398	349.69
931.645	482.69
931.893	377.69
932.14	336.69
932.388	341.69
932.635	490.69
932.882	555.69
933.13	423.69
933.377	343.69
933.625	432.69
933.872	340.69
934.119	271.69
934.367	326.69
934.614	335.69
934.861	323.69
935.109	308.69
935.356	349.69
935.603	400.69
935.851	347.69
936.098	283.69
936.345	381.69
936.593	419.69
936.84	371.69
937.087	235.69
937.335	296.69
937.582	374.69
937.829	396.69
938.077	339.69
938.324	310.69
938.571	394.69
938.818	323.69
939.066	275.69
939.313	266.69
939.56	389.69
939.807	391.69
940.055	250.69
940.302	287.69
940.549	458.69
940.796	391.69
941.044	341.69
941.291	351.69
941.538	486.69
941.785	371.69
942.033	305.69
942.28	372.69
942.527	381.69
942.774	349.69
943.021	227.69
943.269	269.69
943.516	389.69
943.763	377.69
944.01	305.69
944.257	379.69
944.504	439.69
944.752	387.69
944.999	357.69
945.246	241.69
945.493	313.69
945.74	328.69
945.987	249.69
946.234	338.69
946.482	417.69
946.729	299.69
946.976	252.69
947.223	280.69
947.47	432.69
947.717	391.69
947.964	396.69
948.211	349.69
948.458	383.69
948.705	322.69
948.952	224.69
949.2	279.69
949.447	391.69
949.694	419.69
949.941	264.69
950.188	264.69
950.435	280.69
950.682	292.69
950.929	180.69
951.176	227.69
951.423	388.69
951.67	355.69
951.917	309.69
952.164	304.69
952.411	386.69
952.658	422.69
952.905	272.69
953.152	184.69
953.399	304.69
953.646	294.69
953.893	202.69
954.14	259.69
954.387	299.69
954.634	269.69
954.881	198.69
955.128	266.69
955.375	274.69
955.622	288.69
955.869	261.69
956.115	234.69
956.362	310.69
956.609	292.69
956.856	226.69
957.103	228.69
957.35	335.69
957.597	328.69
957.844	253.69
958.091	255.69
958.338	335.69
958.585	283.69
958.831	100.69
959.078	171.69
959.325	333.69
959.572	224.69
959.819	144.69
960.066	119.69
960.313	231.69
960.559	209.69
960.806	90.69
961.053	159.69
961.3	316.69
961.547	325.69
961.794	126.69
962.04	295.69
962.287	319.69
962.534	187.69
962.781	154.69
963.028	230.69
963.274	331.69
963.521	225.69
963.768	175.69
964.015	212.69
964.262	353.69
964.508	198.69
964.755	106.69
965.002	166.69
965.249	195.69
965.495	136.69
965.742	101.69
965.989	143.69
966.236	270.69
966.482	192.69
966.729	134.69
966.976	108.69
967.222	178.69
967.469	180.69
967.716	117.69
967.963	130.69
968.209	239.69
968.456	188.69
968.703	61.69
968.949	149.69
969.196	329.69
969.443	339.69
969.689	100.69
969.936	72.69
970.183	181.69
970.429	125.69
970.676	88.69
970.923	159.69
971.169	206.69
971.416	131.69
971.663	93.69
971.909	153.69
972.156	225.69
972.402	201.69
972.649	147.69
972.896	164.69
973.142	192.69
973.389	223.69
973.635	119.69
973.882	246.69
974.129	310.69
974.375	169.69
974.622	84.69
974.868	88.69
975.115	160.69
975.361	119.69
975.608	97.69
975.855	213.69
976.101	233.69
976.348	167.69
976.594	116.69
976.841	153.69
977.087	142.69
977.334	191.69
977.58	60.69
977.827	58.69
978.073	185.69
978.32	181.69
978.566	51.69
978.813	134.69
979.059	164.69
979.306	140.69
979.552	49.69
979.799	125.69
980.045	126.69
980.292	119.69
980.538	47.69
980.785	47.69
981.031	87.69
981.278	68.69
981.524	3.69
981.771	159.69
982.017	285.69
982.263	200.69
982.51	55.69
982.756	117.69
983.003	188.69
983.249	130.69
983.495	58.69
983.742	45.69
983.988	116.69
984.235	136.69
984.481	38.69
984.727	54.69
984.974	167.69
985.22	159.69
985.467	88.69
985.713	100.69
985.959	202.69
986.206	176.69
986.452	83.69
986.698	128.69
986.945	145.69
987.191	169.69
987.437	167.69
987.684	127.69
987.93	275.69
988.176	200.69
988.423	12.69
988.669	89.69
988.915	243.69
989.162	107.69
989.408	7.69
989.654	77.69
989.901	112.69
990.147	99.69
990.393	119.69
990.639	169.69
990.886	192.69
991.132	248.69
991.378	172.69
991.625	277.69
991.871	255.69
992.117	169.69
992.363	96.69
992.61	123.69
992.856	250.69
993.102	95.69
993.348	43.69
993.594	81.69
993.841	122.69
994.087	244.69
994.333	118.69
994.579	78.69
994.826	140.69
995.072	152.69
995.318	-61.31
995.564	-4.31
995.81	144.69
996.057	105.69
996.303	-8.31
996.549	16.69
996.795	101.69
997.041	77.69
997.287	32.69
997.534	32.69
997.78	100.69
998.026	125.69
998.272	3.69
998.518	-8.31
998.764	157.69
999.01	170.69
999.256	64.69
999.503	31.69
999.749	54.69
999.995	5.69
1000.241	-7.31
1000.487	76.69
1000.733	129.69
1000.979	82.69
1001.225	48.69
1001.471	96.69
1001.718	146.69
1001.964	201.69
1002.21	27.69
1002.456	44.69
1002.702	194.69
1002.948	102.69
1003.194	37.69
1003.44	21.69
1003.686	101.69
1003.932	33.69
1004.178	-0.31
1004.424	65.69
1004.67	202.69
1004.916	180.69
1005.162	60.69
1005.408	26.69
1005.654	167.69
1005.9	6.69
1006.146	-52.31
1006.392	19.69
1006.638	90.69
1006.884	65.69
1007.13	-16.31
1007.376	-31.31
1007.622	158.69
1007.868	162.69
1008.114	27.69
1008.36	95.69
1008.606	121.69
1008.852	130.69
1009.098	75.69
1009.344	113.69
1009.59	99.69
1009.836	-22.31
1010.082	-99.31
1010.328	16.69
1010.574	99.69
1010.82	3.69
1011.065	-91.31
1011.311	-57.31
1011.557	48.69
1011.803	23.69
1012.049	-33.31
1012.295	13.69
1012.541	51.69
1012.787	55.69
1013.033	-74.31
1013.278	-90.31
1013.524	51.69
1013.77	122.69
1014.016	25.69
1014.262	35.69
1014.508	127.69
1014.754	-18.31
1015	-44.31
1015.245	103.69
1015.491	107.69
1015.737	96.69
1015.983	-40.31
1016.229	-80.31
1016.475	41.69
1016.72	182.69
1016.966	184.69
1017.212	67.69
1017.458	139.69
1017.704	55.69
1017.949	-77.31
1018.195	86.69
1018.441	204.69
1018.687	145.69
1018.933	-19.31
1019.178	-15.31
1019.424	149.69
1019.67	150.69
1019.916	-44.31
1020.161	3.69
1020.407	63.69
1020.653	1.69
1020.899	-66.31
1021.144	19.69
1021.39	104.69
1021.636	-6.31
1021.882	-97.31
1022.127	24.69
1022.373	177.69
1022.619	115.69
1022.865	2.69
1023.11	3.69
1023.356	127.69
1023.602	43.69
1023.847	-16.31
1024.093	28.69
1024.339	7.69
1024.584	-13.31
1024.83	-28.31
1025.076	-25.31
1025.321	104.69
1025.567	67.69
1025.813	-35.31
1026.058	49.69
1026.304	91.69
1026.55	20.69
1026.795	3.69
1027.041	7.69
1027.287	73.69
1027.532	75.69
1027.778	49.69
1028.024	17.69
1028.269	35.69
1028.515	-39.31
1028.76	-78.31
1029.006	-0.31
1029.252	113.69
1029.497	27.69
1029.743	-8.31
1029.989	-64.31
1030.234	64.69
1030.48	136.69
1030.725	-48.31
1030.971	-15.31
1031.216	113.69
1031.462	27.69
1031.708	-123.31
1031.953	-59.31
1032.199	23.69
1032.444	40.69
1032.69	-2.31
1032.935	-30.31
1033.181	84.69
1033.426	-14.31
1033.672	-151.31
1033.918	-96.31
1034.163	-4.31
1034.409	-6.31
1034.654	-63.31
1034.9	19.69
1035.145	71.69
1035.391	8.69
1035.636	-101.31
1035.882	-30.31
1036.127	-18.31
1036.373	-64.31
1036.618	-171.31
1036.864	-55.31
1037.109	97.69
1037.355	3.69
1037.6	-82.31
1037.845	-42.31
1038.091	153.69
1038.336	101.69
1038.582	121.69
1038.827	182.69
1039.073	31.69
1039.318	-60.31
1039.564	-143.31
1039.809	-53.31
1040.055	107.69
1040.3	94.69
1040.545	-56.31
1040.791	-65.31
1041.036	-15.31
1041.282	41.69
1041.527	111.69
1041.772	-93.31
1042.018	-24.31
1042.263	16.69
1042.509	-127.31
1042.754	-86.31
1042.999	33.69
1043.245	-8.31
1043.49	-161.31
1043.736	-80.31
1043.981	-2.31
1044.226	18.69
1044.472	-0.31
1044.717	-6.31
1044.962	88.69
1045.208	5.69
1045.453	-212.31
1045.698	-148.31
1045.944	60.69
1046.189	24.69
1046.434	-66.31
1046.68	-47.31
1046.925	124.69
1047.17	-24.31
1047.416	-200.31
1047.661	-86.31
1047.906	58.69
1048.152	32.69
1048.397	-57.31
1048.642	-64.31
1048.887	117.69
1049.133	122.69
1049.378	-60.31
1049.623	-73.31
1049.869	41.69
1050.114	-24.31
1050.359	-110.31
1050.604	-33.31
1050.85	118.69
1051.095	-9.31
1051.34	-102.31
1051.585	-38.31
1051.831	141.69
1052.076	-10.31
1052.321	-194.31
1052.566	-87.31
1052.812	98.69
1053.057	-2.31
1053.302	-77.31
1053.547	28.69
1053.792	74.69
1054.038	64.69
1054.283	-143.31
1054.528	-46.31
1054.773	19.69
1055.018	17.69
1055.264	-105.31
1055.509	-135.31
1055.754	4.69
1055.999	-45.31
1056.244	-147.31
1056.49	-60.31
1056.735	31.69
1056.98	-38.31
1057.225	-144.31
1057.47	38.69
1057.715	-22.31
1057.96	-85.31
1058.206	-122.31
1058.451	-25.31
1058.696	87.69
1058.941	40.69
1059.186	-139.31
1059.431	-99.31
1059.676	91.69
1059.922	27.69
1060.167	117.69
1060.412	260.69
1060.657	51.69
1060.902	-11.31
1061.147	-174.31
1061.392	-90.31
1061.637	57.69
1061.882	-29.31
1062.127	-177.31
1062.373	-174.31
1062.618	97.69
1062.863	116.69
1063.108	-75.31
1063.353	-127.31
1063.598	-28.31
1063.843	-53.31
1064.088	-132.31
1064.333	-132.31
1064.578	31.69
1064.823	61.69
1065.068	-184.31
1065.313	-115.31
1065.558	56.69
1065.803	47.69
1066.048	-160.31
1066.293	-155.31
1066.538	57.69
1066.783	-7.31
1067.028	-182.31
1067.273	-152.31
1067.518	31.69
1067.763	-34.31
1068.008	-200.31
1068.253	-129.31
1068.498	49.69
1068.743	-2.31
1068.988	-151.31
1069.233	-135.31
1069.478	70.69
1069.723	114.69
1069.968	-80.31
1070.213	-35.31
1070.458	70.69
1070.703	-21.31
1070.948	-197.31
1071.193	-86.31
1071.438	47.69
1071.683	81.69
1071.928	-45.31
1072.173	-64.31
1072.418	5.69
1072.663	-17.31
1072.908	-145.31
1073.152	-94.31
1073.397	67.69
1073.642	-34.31
1073.887	-83.31
1074.132	37.69
1074.377	13.69
1074.622	-18.31
1074.867	-130.31
1075.112	-61.31
1075.357	125.69
1075.601	-18.31
1075.846	-99.31
1076.091	1.69
1076.336	64.69
1076.581	-79.31
1076.826	-176.31
1077.071	-84.31
1077.315	165.69
1077.56	90.69
1077.805	-116.31
1078.05	-76.31
1078.295	-30.31
1078.54	-60.31
1078.785	-185.31
1079.029	-121.31
1079.274	68.69
1079.519	-79.31
1079.764	-179.31
1080.009	-59.31
1080.253	22.69
1080.498	-67.31
1080.743	-220.31
1080.988	-70.31
1081.233	141.69
1081.478	58.69
1081.722	-142.31
1081.967	-24.31
1082.212	129.69
1082.457	21.69
1082.701	-108.31
1082.946	-82.31
1083.191	32.69
1083.436	-79.31
1083.681	-206.31
1083.925	-104.31
1084.17	-3.31
1084.415	32.69
1084.66	-188.31
1084.904	-87.31
1085.149	-9.31
1085.394	-43.31
1085.639	-200.31
1085.883	-96.31
1086.128	148.69
1086.373	157.69
1086.617	-76.31
1086.862	-148.31
1087.107	-32.31
1087.352	-67.31
1087.596	-159.31
1087.841	-33.31
1088.086	35.69
1088.33	18.69
1088.575	-232.31
1088.82	-106.31
1089.064	69.69
1089.309	-75.31
1089.554	-193.31
1089.798	-178.31
1090.043	43.69
1090.288	-15.31
1090.533	-212.31
1090.777	-131.31
1091.022	23.69
1091.266	37.69
1091.511	-119.31
1091.756	-50.31
1092	87.69
1092.245	73.69
1092.49	-159.31
1092.734	-96.31
1092.979	84.69
1093.224	-30.31
1093.468	-180.31
1093.713	-128.31
1093.957	16.69
1094.202	-47.31
1094.447	-222.31
1094.691	-90.31
1094.936	42.69
1095.181	1.69
1095.425	-178.31
1095.67	-155.31
1095.914	1.69
1096.159	11.69
1096.403	-155.31
1096.648	-54.31
1096.893	71.69
1097.137	-81.31
1097.382	-243.31
1097.626	-176.31
1097.871	1.69
1098.115	-52.31
1098.36	-207.31
1098.605	-116.31
1098.849	-43.31
1099.094	-103.31
1099.338	-187.31
1099.583	-100.31
1099.827	119.69
1100.072	27.69
1100.316	-151.31
1100.561	-110.31
1100.805	51.69
1101.05	15.69
1101.294	-184.31
1101.539	-152.31
1101.783	4.69
1102.028	-5.31
1102.273	-152.31
1102.517	-84.31
1102.761	42.69
1103.006	-77.31
1103.25	-288.31
1103.495	-172.31
1103.739	41.69
1103.984	90.69
1104.228	-100.31
1104.473	-23.31
1104.717	32.69
1104.962	-8.31
1105.206	-117.31
1105.451	-143.31
1105.695	10.69
1105.94	-10.31
1106.184	-147.31
1106.429	-104.31
1106.673	0.69
1106.917	78.69
1107.162	-164.31
1107.406	-15.31
1107.651	132.69
1107.895	-92.31
1108.14	-202.31
1108.384	-114.31
1108.628	104.69
1108.873	95.69
1109.117	-141.31
1109.362	-117.31
1109.606	-14.31
1109.85	-29.31
1110.095	-179.31
1110.339	-98.31
1110.584	89.69
1110.828	21.69
1111.072	-93.31
1111.317	-124.31
1111.561	-19.31
1111.806	-37.31
1112.05	-175.31
1112.294	-79.31
1112.539	27.69
1112.783	-4.31
1113.027	-130.31
1113.272	-127.31
1113.516	-28.31
1113.76	-60.31
1114.005	-149.31
1114.249	-79.31
1114.493	55.69
1114.738	97.69
1114.982	-51.31
1115.226	-102.31
1115.471	-21.31
1115.715	-38.31
1115.959	-191.31
1116.204	-188.31
1116.448	-5.31
1116.692	-88.31
1116.937	-182.31
1117.181	-27.31
1117.425	-37.31
1117.67	-85.31
1117.914	-158.31
1118.158	-98.31
1118.402	141.69
1118.647	71.69
1118.891	-102.31
1119.135	-44.31
1119.38	105.69
1119.624	15.69
1119.868	-139.31
1120.112	-145.31
1120.357	-61.31
1120.601	-122.31
1120.845	-230.31
1121.089	-150.31
1121.334	22.69
