Data from HR4C21111__45__10-15-00-851.txt Node

Date: Mon Feb 22 10:15:00 IST 2021
User: Kapil
Spectrometer: HR4C2111
Trigger mode: 4
Integration Time (sec): 2.300000E0
Scans to average: 1
Electric dark correction enabled: true
Nonlinearity correction enabled: false
Boxcar width: 0
XAxis mode: Wavelengths
Number of Pixels in Spectrum: 3648
>>>>>Begin Spectral Data<<<<<
189.472	-441.08
189.745	-441.08
190.017	-441.08
190.289	-464.08
190.561	-294.08
190.834	-24.08
191.106	-124.08
191.378	17.92
191.65	0.92
191.923	-149.08
192.195	-89.08
192.467	144.92
192.739	110.92
193.011	-28.08
193.284	83.92
193.556	170.92
193.828	-20.08
194.1	-95.08
194.372	-111.08
194.644	60.92
194.916	61.92
195.188	-151.08
195.46	-84.08
195.732	32.92
196.004	-39.08
196.276	-118.08
196.548	-79.08
196.82	64.92
197.092	58.92
197.364	-130.08
197.636	-89.08
197.908	9.92
198.18	-53.08
198.452	-92.08
198.724	-49.08
198.996	43.92
199.268	71.92
199.54	-23.08
199.811	-123.08
200.083	90.92
200.355	12.92
200.627	-203.08
200.899	-77.08
201.171	37.92
201.442	-56.08
201.714	-192.08
201.986	-108.08
202.258	46.92
202.529	104.92
202.801	-11.08
203.073	64.92
203.345	174.92
203.616	-10.08
203.888	-151.08
204.16	-151.08
204.431	76.92
204.703	-8.08
204.974	-149.08
205.246	-8.08
205.518	173.92
205.789	5.92
206.061	-127.08
206.332	-117.08
206.604	9.92
206.876	95.92
207.147	125.92
207.419	6.92
207.69	120.92
207.962	-26.08
208.233	-172.08
208.505	9.92
208.776	169.92
209.047	84.92
209.319	-127.08
209.59	-79.08
209.862	107.92
210.133	-30.08
210.404	-163.08
210.676	-111.08
210.947	78.92
211.219	66.92
211.49	-120.08
211.761	-59.08
212.033	13.92
212.304	-49.08
212.575	-187.08
212.846	-85.08
213.118	30.92
213.389	-54.08
213.66	-109.08
213.931	-43.08
214.203	32.92
214.474	-56.08
214.745	-140.08
215.016	120.92
215.287	416.92
215.559	60.92
215.83	-125.08
216.101	-70.08
216.372	1.92
216.643	68.92
216.914	1.92
217.185	-82.08
217.456	160.92
217.727	14.92
217.998	-168.08
218.269	-52.08
218.54	41.92
218.811	-11.08
219.082	-96.08
219.353	-67.08
219.624	-19.08
219.895	-31.08
220.166	-143.08
220.437	-119.08
220.708	83.92
220.979	-14.08
221.25	-147.08
221.521	-102.08
221.792	40.92
222.063	87.92
222.334	31.92
222.604	199.92
222.875	160.92
223.146	79.92
223.417	-176.08
223.688	-40.08
223.958	127.92
224.229	-56.08
224.5	-185.08
224.771	-80.08
225.041	81.92
225.312	51.92
225.583	-107.08
225.854	-63.08
226.124	96.92
226.395	-4.08
226.666	-114.08
226.936	-103.08
227.207	59.92
227.478	-57.08
227.748	-115.08
228.019	46.92
228.289	249.92
228.56	-41.08
228.831	-54.08
229.101	43.92
229.372	66.92
229.642	-35.08
229.913	-159.08
230.183	-130.08
230.454	5.92
230.724	23.92
230.995	-86.08
231.265	-72.08
231.536	69.92
231.806	42.92
232.076	-118.08
232.347	-128.08
232.617	21.92
232.888	11.92
233.158	-66.08
233.428	-133.08
233.699	-9.08
233.969	-43.08
234.239	-160.08
234.51	-91.08
234.78	45.92
235.05	-21.08
235.321	-117.08
235.591	-77.08
235.861	67.92
236.131	-58.08
236.402	-197.08
236.672	-89.08
236.942	57.92
237.212	50.92
237.483	-67.08
237.753	7.92
238.023	163.92
238.293	-2.08
238.563	-88.08
238.833	-108.08
239.103	63.92
239.374	-20.08
239.644	-144.08
239.914	-34.08
240.184	143.92
240.454	-4.08
240.724	-166.08
240.994	-64.08
241.264	19.92
241.534	56.92
241.804	-20.08
242.074	-97.08
242.344	-46.08
242.614	-53.08
242.884	-172.08
243.154	-135.08
243.424	36.92
243.694	56.92
243.964	-94.08
244.234	-86.08
244.503	118.92
244.773	18.92
245.043	-210.08
245.313	-151.08
245.583	107.92
245.853	75.92
246.123	-175.08
246.392	-114.08
246.662	3.92
246.932	-25.08
247.202	-183.08
247.471	-74.08
247.741	244.92
248.011	97.92
248.281	-141.08
248.55	-90.08
248.82	71.92
249.09	4.92
249.359	-100.08
249.629	-83.08
249.899	34.92
250.168	56.92
250.438	-23.08
250.708	-109.08
250.977	88.92
251.247	51.92
251.516	-119.08
251.786	-63.08
252.055	121.92
252.325	23.92
252.595	-107.08
252.864	-54.08
253.134	46.92
253.403	-32.08
253.673	-177.08
253.942	-113.08
254.212	30.92
254.481	-10.08
254.75	-147.08
255.02	-83.08
255.289	72.92
255.559	-6.08
255.828	-132.08
256.097	-56.08
256.367	7.92
256.636	-67.08
256.906	-135.08
257.175	-14.08
257.444	246.92
257.714	50.92
257.983	-72.08
258.252	-36.08
258.521	6.92
258.791	46.92
259.06	-93.08
259.329	-48.08
259.598	59.92
259.868	-9.08
260.137	-124.08
260.406	-4.08
260.675	94.92
260.944	31.92
261.214	-127.08
261.483	-49.08
261.752	176.92
262.021	4.92
262.29	-176.08
262.559	-128.08
262.828	3.92
263.097	-64.08
263.366	-210.08
263.635	-83.08
263.905	145.92
264.174	20.92
264.443	-213.08
264.712	-115.08
264.981	44.92
265.25	-41.08
265.519	-148.08
265.788	-145.08
266.057	28.92
266.325	55.92
266.594	-59.08
266.863	-131.08
267.132	15.92
267.401	10.92
267.67	-190.08
267.939	-148.08
268.208	17.92
268.477	58.92
268.745	-149.08
269.014	-102.08
269.283	121.92
269.552	31.92
269.821	-123.08
270.089	-14.08
270.358	0.92
270.627	-38.08
270.896	-144.08
271.164	-159.08
271.433	17.92
271.702	81.92
271.971	-151.08
272.239	-141.08
272.508	18.92
272.777	-36.08
273.045	-14.08
273.314	-27.08
273.583	90.92
273.851	-26.08
274.12	-180.08
274.388	-146.08
274.657	-13.08
274.926	-14.08
275.194	-168.08
275.463	-80.08
275.731	22.92
276	153.92
276.268	348.92
276.537	-95.08
276.805	16.92
277.074	27.92
277.342	-169.08
277.611	-99.08
277.879	110.92
278.148	34.92
278.416	-144.08
278.684	-125.08
278.953	-35.08
279.221	-36.08
279.49	-194.08
279.758	-109.08
280.026	-6.08
280.295	6.92
280.563	-125.08
280.831	735.92
281.1	1874.92
281.368	175.92
281.636	-116.08
281.904	-132.08
282.173	-23.08
282.441	-71.08
282.709	-105.08
282.977	32.92
283.246	39.92
283.514	-39.08
283.782	-60.08
284.05	19.92
284.318	53.92
284.587	-50.08
284.855	-131.08
285.123	-67.08
285.391	63.92
285.659	35.92
285.927	-161.08
286.195	-65.08
286.463	48.92
286.732	-4.08
287	-110.08
287.268	-53.08
287.536	35.92
287.804	-36.08
288.072	-145.08
288.34	-98.08
288.608	67.92
288.876	-49.08
289.144	-142.08
289.412	-13.08
289.68	51.92
289.948	-31.08
290.215	-126.08
290.483	-111.08
290.751	100.92
291.019	105.92
291.287	-168.08
291.555	-129.08
291.823	13.92
292.091	-31.08
292.358	-79.08
292.626	-22.08
292.894	79.92
293.162	45.92
293.43	-121.08
293.697	-89.08
293.965	48.92
294.233	-47.08
294.501	-188.08
294.768	-80.08
295.036	65.92
295.304	23.92
295.572	-152.08
295.839	-115.08
296.107	100.92
296.375	-0.08
296.642	-138.08
296.91	-121.08
297.178	49.92
297.445	165.92
297.713	89.92
297.98	-89.08
298.248	-35.08
298.516	-51.08
298.783	-118.08
299.051	-109.08
299.318	10.92
299.586	-37.08
299.853	-95.08
300.121	-93.08
300.388	41.92
300.656	-9.08
300.923	-152.08
301.191	-54.08
301.458	50.92
301.726	-30.08
301.993	-154.08
302.26	-93.08
302.528	28.92
302.795	-18.08
303.063	-86.08
303.33	-72.08
303.597	16.92
303.865	9.92
304.132	-136.08
304.399	-126.08
304.667	-33.08
304.934	4.92
305.201	-117.08
305.469	-34.08
305.736	40.92
306.003	19.92
306.27	-65.08
306.538	-110.08
306.805	-9.08
307.072	-39.08
307.339	-93.08
307.606	-47.08
307.874	158.92
308.141	72.92
308.408	-135.08
308.675	-108.08
308.942	-58.08
309.209	-91.08
309.477	-147.08
309.744	-105.08
310.011	8.92
310.278	40.92
310.545	-25.08
310.812	-54.08
311.079	133.92
311.346	191.92
311.613	52.92
311.88	-25.08
312.147	-68.08
312.414	-53.08
312.681	-121.08
312.948	-27.08
313.215	127.92
313.482	86.92
313.749	-113.08
314.016	-212.08
314.283	-72.08
314.55	32.92
314.817	-114.08
315.083	-125.08
315.35	-85.08
315.617	-143.08
315.884	-152.08
316.151	50.92
316.418	161.92
316.684	-38.08
316.951	-204.08
317.218	-126.08
317.485	-25.08
317.752	-69.08
318.018	-124.08
318.285	-25.08
318.552	4.92
318.819	-67.08
319.085	-149.08
319.352	-55.08
319.619	35.92
319.885	-40.08
320.152	-207.08
320.419	-103.08
320.685	40.92
320.952	-33.08
321.219	-67.08
321.485	65.92
321.752	-5.08
322.019	-56.08
322.285	25.92
322.552	-33.08
322.818	109.92
323.085	-38.08
323.351	-138.08
323.618	-28.08
323.884	25.92
324.151	-84.08
324.417	-50.08
324.684	-98.08
324.95	-60.08
325.217	-154.08
325.483	-185.08
325.75	-31.08
326.016	7.92
326.283	-39.08
326.549	-207.08
326.815	-89.08
327.082	91.92
327.348	7.92
327.615	-112.08
327.881	-43.08
328.147	117.92
328.414	132.92
328.68	-4.08
328.946	-37.08
329.212	18.92
329.479	-19.08
329.745	-132.08
330.011	-109.08
330.278	16.92
330.544	-56.08
330.81	-36.08
331.076	-55.08
331.342	-45.08
331.609	-40.08
331.875	-117.08
332.141	-109.08
332.407	23.92
332.673	-8.08
332.94	-23.08
333.206	-67.08
333.472	35.92
333.738	67.92
334.004	-125.08
334.27	-30.08
334.536	-19.08
334.802	-64.08
335.068	-124.08
335.334	-10.08
335.6	20.92
335.866	-20.08
336.132	-165.08
336.398	-111.08
336.664	-25.08
336.93	-48.08
337.196	-93.08
337.462	-18.08
337.728	25.92
337.994	-46.08
338.26	-101.08
338.526	-39.08
338.792	-52.08
339.058	-56.08
339.324	-159.08
339.59	-25.08
339.856	46.92
340.121	-75.08
340.387	-133.08
340.653	74.92
340.919	151.92
341.185	47.92
341.45	-79.08
341.716	6.92
341.982	92.92
342.248	-83.08
342.514	-111.08
342.779	-3.08
343.045	13.92
343.311	-15.08
343.576	-98.08
343.842	-39.08
344.108	126.92
344.374	-7.08
344.639	-124.08
344.905	-97.08
345.171	34.92
345.436	-88.08
345.702	-120.08
345.967	34.92
346.233	73.92
346.499	14.92
346.764	-185.08
347.03	-76.08
347.295	-55.08
347.561	-8.08
347.826	-62.08
348.092	-132.08
348.357	-31.08
348.623	-40.08
348.888	-141.08
349.154	-113.08
349.419	26.92
349.685	-22.08
349.95	-100.08
350.216	-77.08
350.481	18.92
350.747	-68.08
351.012	-197.08
351.277	-135.08
351.543	11.92
351.808	-56.08
352.074	-214.08
352.339	-162.08
352.604	4.92
352.87	-20.08
353.135	-137.08
353.4	-103.08
353.666	-52.08
353.931	-72.08
354.196	-194.08
354.461	-162.08
354.727	-5.08
354.992	-28.08
355.257	-164.08
355.522	-75.08
355.788	-47.08
356.053	18.92
356.318	-120.08
356.583	-142.08
356.848	61.92
357.113	167.92
357.379	-88.08
357.644	-118.08
357.909	59.92
358.174	78.92
358.439	-173.08
358.704	-109.08
358.969	17.92
359.234	31.92
359.499	-138.08
359.765	-84.08
360.03	26.92
360.295	27.92
360.56	-155.08
360.825	-88.08
361.09	129.92
361.355	-60.08
361.62	-94.08
361.885	-68.08
362.15	-95.08
362.415	-73.08
362.679	-150.08
362.944	1.92
363.209	21.92
363.474	33.92
363.739	-32.08
364.004	-122.08
364.269	-61.08
364.534	-27.08
364.799	-74.08
365.063	-77.08
365.328	29.92
365.593	13.92
365.858	-116.08
366.123	-115.08
366.387	13.92
366.652	-58.08
366.917	-168.08
367.182	-114.08
367.447	29.92
367.711	-21.08
367.976	-96.08
368.241	-11.08
368.505	51.92
368.77	-59.08
369.035	-86.08
369.299	-35.08
369.564	-1.08
369.829	-79.08
370.093	-120.08
370.358	-127.08
370.623	-23.08
370.887	-12.08
371.152	-166.08
371.416	-95.08
371.681	-42.08
371.946	-147.08
372.21	-182.08
372.475	-45.08
372.739	-11.08
373.004	-82.08
373.268	-101.08
373.533	-55.08
373.797	-10.08
374.062	-10.08
374.326	-180.08
374.591	-94.08
374.855	1.92
375.12	-81.08
375.384	-246.08
375.648	-136.08
375.913	8.92
376.177	15.92
376.442	-123.08
376.706	-131.08
376.97	-4.08
377.235	-38.08
377.499	-86.08
377.763	-85.08
378.028	-89.08
378.292	-55.08
378.556	-130.08
378.821	-197.08
379.085	-107.08
379.349	-174.08
379.614	-247.08
379.878	-131.08
380.142	66.92
380.406	-24.08
380.671	-53.08
380.935	76.92
381.199	188.92
381.463	40.92
381.727	-13.08
381.991	-77.08
382.256	-11.08
382.52	-53.08
382.784	-44.08
383.048	86.92
383.312	13.92
383.576	-41.08
383.84	-159.08
384.104	-97.08
384.369	-13.08
384.633	-129.08
384.897	-231.08
385.161	-110.08
385.425	8.92
385.689	-77.08
385.953	-145.08
386.217	-169.08
386.481	-57.08
386.745	-24.08
387.009	-67.08
387.273	-119.08
387.537	-75.08
387.801	-60.08
388.064	-128.08
388.328	-41.08
388.592	-0.08
388.856	-70.08
389.12	-130.08
389.384	-78.08
389.648	-35.08
389.912	36.92
390.176	30.92
390.439	102.92
390.703	-58.08
390.967	-81.08
391.231	-161.08
391.495	-117.08
391.758	-66.08
392.022	-55.08
392.286	-168.08
392.55	-140.08
392.813	-29.08
393.077	11.92
393.341	-71.08
393.605	0.92
393.868	-54.08
394.132	-68.08
394.396	-104.08
394.659	26.92
394.923	-23.08
395.187	-86.08
395.45	-112.08
395.714	-62.08
395.978	-29.08
396.241	-32.08
396.505	-116.08
396.768	-70.08
397.032	-9.08
397.295	-13.08
397.559	-92.08
397.823	-119.08
398.086	9.92
398.35	-54.08
398.613	-172.08
398.877	-31.08
399.14	81.92
399.404	70.92
399.667	-24.08
399.931	-83.08
400.194	-6.08
400.457	-47.08
400.721	-97.08
400.984	5.92
401.248	-47.08
401.511	-79.08
401.775	-171.08
402.038	-120.08
402.301	73.92
402.565	14.92
402.828	-193.08
403.091	-124.08
403.355	-21.08
403.618	-11.08
403.881	-15.08
404.145	-52.08
404.408	0.92
404.671	-52.08
404.934	-42.08
405.198	-12.08
405.461	-6.08
405.724	31.92
405.987	-5.08
406.251	19.92
406.514	101.92
406.777	-48.08
407.04	-127.08
407.303	-119.08
407.567	18.92
407.83	67.92
408.093	-155.08
408.356	-54.08
408.619	15.92
408.882	74.92
409.145	-23.08
409.408	-63.08
409.672	20.92
409.935	-38.08
410.198	-145.08
410.461	-67.08
410.724	80.92
410.987	-12.08
411.25	-149.08
411.513	-21.08
411.776	29.92
412.039	-76.08
412.302	-130.08
412.565	-107.08
412.828	-60.08
413.091	-62.08
413.354	-155.08
413.617	-112.08
413.879	-38.08
414.142	-24.08
414.405	-167.08
414.668	-83.08
414.931	46.92
415.194	11.92
415.457	-139.08
415.72	-60.08
415.983	-4.08
416.245	-8.08
416.508	-115.08
416.771	-147.08
417.034	4.92
417.297	-5.08
417.559	-37.08
417.822	-70.08
418.085	15.92
418.348	4.92
418.61	-154.08
418.873	-137.08
419.136	-96.08
419.399	-107.08
419.661	-89.08
419.924	-93.08
420.187	-8.08
420.449	-43.08
420.712	-114.08
420.975	-160.08
421.237	-48.08
421.5	-50.08
421.762	-9.08
422.025	27.92
422.288	56.92
422.55	-113.08
422.813	-184.08
423.075	-101.08
423.338	-36.08
423.601	-9.08
423.863	-69.08
424.126	-62.08
424.388	46.92
424.651	-27.08
424.913	-97.08
425.176	-96.08
425.438	-58.08
425.701	16.92
425.963	-122.08
426.225	-180.08
426.488	-67.08
426.75	-76.08
427.013	-138.08
427.275	-92.08
427.538	-66.08
427.8	-83.08
428.062	-140.08
428.325	-65.08
428.587	31.92
428.849	-26.08
429.112	-91.08
429.374	-132.08
429.636	-64.08
429.899	17.92
430.161	-98.08
430.423	-61.08
430.686	20.92
430.948	-21.08
431.21	-127.08
431.472	-136.08
431.735	-71.08
431.997	-89.08
432.259	-49.08
432.521	-121.08
432.783	-32.08
433.046	-59.08
433.308	-148.08
433.57	-90.08
433.832	128.92
434.094	-64.08
434.356	-190.08
434.618	-108.08
434.881	-52.08
435.143	-94.08
435.405	-72.08
435.667	-42.08
435.929	-15.08
436.191	-65.08
436.453	-157.08
436.715	-79.08
436.977	-27.08
437.239	-50.08
437.501	-174.08
437.763	-148.08
438.025	-11.08
438.287	-37.08
438.549	-134.08
438.811	-91.08
439.073	-45.08
439.335	-119.08
439.597	-134.08
439.859	-48.08
440.121	65.92
440.383	-122.08
440.645	-115.08
440.907	-43.08
441.168	-3.08
441.43	-77.08
441.692	-156.08
441.954	-107.08
442.216	-46.08
442.478	-78.08
442.74	-187.08
443.001	-81.08
443.263	68.92
443.525	10.92
443.787	-123.08
444.048	-106.08
444.31	-85.08
444.572	-73.08
444.834	-110.08
445.095	-105.08
445.357	30.92
445.619	-21.08
445.881	-229.08
446.142	-147.08
446.404	-76.08
446.666	-60.08
446.927	-121.08
447.189	0.92
447.451	44.92
447.712	-12.08
447.974	-222.08
448.235	-190.08
448.497	-53.08
448.759	-111.08
449.02	-173.08
449.282	-196.08
449.543	-34.08
449.805	24.92
450.066	-192.08
450.328	-64.08
450.59	115.92
450.851	-28.08
451.113	-85.08
451.374	-156.08
451.636	-11.08
451.897	13.92
452.158	-79.08
452.42	27.92
452.681	71.92
452.943	-110.08
453.204	-192.08
453.466	-184.08
453.727	-93.08
453.988	-41.08
454.25	-183.08
454.511	-201.08
454.773	-78.08
455.034	68.92
455.295	-145.08
455.557	-163.08
455.818	-57.08
456.079	-55.08
456.341	37.92
456.602	26.92
456.863	9.92
457.124	-60.08
457.386	-170.08
457.647	-175.08
457.908	-85.08
458.169	25.92
458.431	-163.08
458.692	-174.08
458.953	-61.08
459.214	-105.08
459.476	-107.08
459.737	-18.08
459.998	25.92
460.259	-70.08
460.52	-174.08
460.781	-111.08
461.043	52.92
461.304	-88.08
461.565	-198.08
461.826	-155.08
462.087	-53.08
462.348	-5.08
462.609	-132.08
462.87	-81.08
463.131	-102.08
463.392	-33.08
463.653	-104.08
463.914	-65.08
464.175	-38.08
464.436	-104.08
464.697	-165.08
464.958	-145.08
465.219	-42.08
465.48	-54.08
465.741	-60.08
466.002	-123.08
466.263	-65.08
466.524	-55.08
466.785	-150.08
467.046	-127.08
467.307	-29.08
467.568	-96.08
467.829	-121.08
468.089	-83.08
468.35	-19.08
468.611	-94.08
468.872	-174.08
469.133	-69.08
469.394	17.92
469.655	61.92
469.915	-106.08
470.176	-174.08
470.437	-131.08
470.698	-54.08
470.958	-128.08
471.219	-179.08
471.48	-97.08
471.741	-107.08
472.001	-182.08
472.262	-119.08
472.523	7.92
472.784	17.92
473.044	-113.08
473.305	-69.08
473.566	30.92
473.826	-12.08
474.087	-127.08
474.348	-110.08
474.608	-40.08
474.869	-8.08
475.129	-118.08
475.39	-149.08
475.651	-71.08
475.911	-36.08
476.172	-183.08
476.432	-70.08
476.693	87.92
476.953	-6.08
477.214	-24.08
477.475	-28.08
477.735	-18.08
477.996	-5.08
478.256	-194.08
478.517	-166.08
478.777	-72.08
479.038	2.92
479.298	-5.08
479.558	-98.08
479.819	46.92
480.079	51.92
480.34	-51.08
480.6	-115.08
480.861	-7.08
481.121	-31.08
481.381	-151.08
481.642	-81.08
481.902	-61.08
482.162	-121.08
482.423	-108.08
482.683	-29.08
482.943	0.92
483.204	-77.08
483.464	-106.08
483.724	-88.08
483.985	-58.08
484.245	-2.08
484.505	-88.08
484.765	-7.08
485.026	50.92
485.286	19.92
485.546	-76.08
485.806	-19.08
486.067	0.92
486.327	-103.08
486.587	-178.08
486.847	-168.08
487.107	-49.08
487.368	-26.08
487.628	-108.08
487.888	-99.08
488.148	-7.08
488.408	-95.08
488.668	-76.08
488.928	-22.08
489.188	-29.08
489.449	82.92
489.709	-84.08
489.969	-100.08
490.229	0.92
490.489	-32.08
490.749	-122.08
491.009	-199.08
491.269	-112.08
491.529	-88.08
491.789	-163.08
492.049	-59.08
492.309	61.92
492.569	-89.08
492.829	-115.08
493.089	-120.08
493.349	26.92
493.609	-55.08
493.869	-148.08
494.129	-66.08
494.389	46.92
494.648	-98.08
494.908	-187.08
495.168	-87.08
495.428	35.92
495.688	-28.08
495.948	-208.08
496.208	-192.08
496.467	-118.08
496.727	-66.08
496.987	-75.08
497.247	-93.08
497.507	-7.08
497.767	22.92
498.026	-146.08
498.286	-63.08
498.546	141.92
498.806	9.92
499.065	42.92
499.325	-43.08
499.585	-42.08
499.845	-35.08
500.104	-43.08
500.364	55.92
500.624	-4.08
500.883	-67.08
501.143	-32.08
501.403	23.92
501.662	89.92
501.922	-0.08
502.182	-142.08
502.441	-165.08
502.701	-85.08
502.96	31.92
503.22	-60.08
503.48	-111.08
503.739	-20.08
503.999	-70.08
504.258	-148.08
504.518	-71.08
504.777	28.92
505.037	-33.08
505.296	-99.08
505.556	-104.08
505.815	9.92
506.075	91.92
506.334	6.92
506.594	-149.08
506.853	-93.08
507.113	-88.08
507.372	-222.08
507.632	-151.08
507.891	-50.08
508.151	-9.08
508.41	-175.08
508.669	-104.08
508.929	37.92
509.188	-53.08
509.447	-105.08
509.707	-136.08
509.966	-48.08
510.226	-46.08
510.485	-80.08
510.744	-68.08
511.004	4.92
511.263	-84.08
511.522	-160.08
511.781	-125.08
512.041	11.92
512.3	-49.08
512.559	-16.08
512.818	3.92
513.078	2.92
513.337	-22.08
513.596	-106.08
513.855	-110.08
514.115	13.92
514.374	-39.08
514.633	-162.08
514.892	-182.08
515.151	-31.08
515.41	20.92
515.67	-74.08
515.929	-126.08
516.188	-41.08
516.447	-64.08
516.706	-142.08
516.965	-111.08
517.224	-67.08
517.483	-68.08
517.743	-118.08
518.002	-60.08
518.261	19.92
518.52	-38.08
518.779	-153.08
519.038	-118.08
519.297	-72.08
519.556	-85.08
519.815	-169.08
520.074	-177.08
520.333	-68.08
520.592	-78.08
520.851	-159.08
521.11	-43.08
521.369	84.92
521.628	-69.08
521.887	-151.08
522.145	-98.08
522.404	-59.08
522.663	-60.08
522.922	-188.08
523.181	-175.08
523.44	-25.08
523.699	-3.08
523.958	-170.08
524.217	-142.08
524.475	-122.08
524.734	-159.08
524.993	-159.08
525.252	-102.08
525.511	-34.08
525.769	-84.08
526.028	-159.08
526.287	-85.08
526.546	-36.08
526.805	-63.08
527.063	-149.08
527.322	-162.08
527.581	-56.08
527.839	-58.08
528.098	-72.08
528.357	-58.08
528.616	-39.08
528.874	-62.08
529.133	-116.08
529.392	-86.08
529.65	-26.08
529.909	-57.08
530.168	-167.08
530.426	-131.08
530.685	16.92
530.943	-27.08
531.202	-144.08
531.461	-141.08
531.719	-14.08
531.978	-79.08
532.236	-154.08
532.495	-57.08
532.753	-2.08
533.012	-91.08
533.271	-172.08
533.529	-156.08
533.788	-71.08
534.046	-162.08
534.305	-192.08
534.563	32.92
534.822	89.92
535.08	-16.08
535.338	-119.08
535.597	-83.08
535.855	3.92
536.114	-60.08
536.372	-160.08
536.631	-88.08
536.889	19.92
537.147	-27.08
537.406	-197.08
537.664	-88.08
537.923	-21.08
538.181	-5.08
538.439	-147.08
538.698	-14.08
538.956	-10.08
539.214	-67.08
539.473	-126.08
539.731	-66.08
539.989	7.92
540.248	-62.08
540.506	-117.08
540.764	-107.08
541.022	5.92
541.281	31.92
541.539	-92.08
541.797	-145.08
542.055	11.92
542.314	97.92
542.572	23.92
542.83	-108.08
543.088	6.92
543.346	-39.08
543.604	-115.08
543.863	-29.08
544.121	108.92
544.379	13.92
544.637	-97.08
544.895	39.92
545.153	151.92
545.411	18.92
545.67	-137.08
545.928	-80.08
546.186	68.92
546.444	143.92
546.702	53.92
546.96	97.92
547.218	167.92
547.476	135.92
547.734	77.92
547.992	170.92
548.25	302.92
548.508	240.92
548.766	245.92
549.024	315.92
549.282	385.92
549.54	456.92
549.798	530.92
550.056	615.92
550.314	810.92
550.572	883.92
550.83	844.92
551.088	1030.92
551.346	1289.92
551.603	1428.92
551.861	1425.92
552.119	1668.92
552.377	1930.92
552.635	1962.92
552.893	2015.92
553.151	2193.92
553.409	2510.92
553.666	2688.92
553.924	2749.92
554.182	2875.92
554.44	3164.92
554.698	3404.92
554.955	3410.92
555.213	3552.92
555.471	3786.92
555.729	3794.92
555.986	3720.92
556.244	3901.92
556.502	4159.92
556.76	4047.92
557.017	4010.92
557.275	4031.92
557.533	4122.92
557.79	3984.92
558.048	3723.92
558.306	3736.92
558.563	3712.92
558.821	3518.92
559.079	3355.92
559.336	3231.92
559.594	3147.92
559.852	2927.92
560.109	2747.92
560.367	2719.92
560.624	2582.92
560.882	2359.92
561.14	2184.92
561.397	2106.92
561.655	1880.92
561.912	1738.92
562.17	1444.92
562.427	1346.92
562.685	1267.92
562.942	1149.92
563.2	909.92
563.457	853.92
563.715	816.92
563.972	732.92
564.23	452.92
564.487	374.92
564.745	444.92
565.002	401.92
565.26	264.92
565.517	212.92
565.774	242.92
566.032	205.92
566.289	127.92
566.547	110.92
566.804	208.92
567.061	144.92
567.319	-22.08
567.576	59.92
567.833	190.92
568.091	222.92
568.348	32.92
568.605	48.92
568.863	82.92
569.12	48.92
569.377	-48.08
569.635	-59.08
569.892	-25.08
570.149	-51.08
570.406	-152.08
570.664	-109.08
570.921	29.92
571.178	-69.08
571.435	-48.08
571.693	-39.08
571.95	3.92
572.207	-56.08
572.464	-84.08
572.721	8.92
572.979	104.92
573.236	31.92
573.493	-74.08
573.75	-69.08
574.007	60.92
574.264	-41.08
574.521	-108.08
574.779	-81.08
575.036	-11.08
575.293	-48.08
575.55	-121.08
575.807	-106.08
576.064	-0.08
576.321	-37.08
576.578	-195.08
576.835	-153.08
577.092	66.92
577.349	-2.08
577.606	-208.08
577.863	-139.08
578.12	-12.08
578.377	-9.08
578.634	-196.08
578.891	-126.08
579.148	-22.08
579.405	-105.08
579.662	-189.08
579.919	-97.08
580.176	-68.08
580.433	-50.08
580.69	-112.08
580.947	-104.08
581.204	-18.08
581.461	-49.08
581.717	-148.08
581.974	8.92
582.231	19.92
582.488	-77.08
582.745	-138.08
583.002	-127.08
583.259	12.92
583.515	-24.08
583.772	-177.08
584.029	-124.08
584.286	35.92
584.543	-131.08
584.799	-166.08
585.056	-95.08
585.313	7.92
585.57	43.92
585.826	-117.08
586.083	-31.08
586.34	144.92
586.597	-56.08
586.853	-204.08
587.11	-169.08
587.367	27.92
587.623	86.92
587.88	-40.08
588.137	-116.08
588.393	-16.08
588.65	-84.08
588.907	-161.08
589.163	-100.08
589.42	-51.08
589.677	-22.08
589.933	-136.08
590.19	-47.08
590.446	73.92
590.703	55.92
590.96	-183.08
591.216	-201.08
591.473	-73.08
591.729	-71.08
591.986	-79.08
592.242	-17.08
592.499	150.92
592.755	1.92
593.012	-189.08
593.268	-104.08
593.525	-61.08
593.781	-43.08
594.038	-137.08
594.294	-122.08
594.551	-73.08
594.807	-147.08
595.064	-155.08
595.32	-131.08
595.576	-31.08
595.833	17.92
596.089	-107.08
596.346	-47.08
596.602	15.92
596.858	84.92
597.115	-97.08
597.371	-27.08
597.628	-27.08
597.884	-80.08
598.14	-148.08
598.397	-10.08
598.653	79.92
598.909	-45.08
599.166	-176.08
599.422	-110.08
599.678	-10.08
599.934	-46.08
600.191	-177.08
600.447	-113.08
600.703	-71.08
600.959	-90.08
601.216	-216.08
601.472	-157.08
601.728	-31.08
601.984	-109.08
602.241	-188.08
602.497	-101.08
602.753	40.92
603.009	-64.08
603.265	-167.08
603.521	-27.08
603.778	78.92
604.034	-116.08
604.29	-189.08
604.546	-129.08
604.802	-30.08
605.058	-84.08
605.314	-189.08
605.571	-119.08
605.827	-76.08
606.083	-53.08
606.339	-171.08
606.595	-65.08
606.851	34.92
607.107	37.92
607.363	-166.08
607.619	-120.08
607.875	92.92
608.131	39.92
608.387	-229.08
608.643	-157.08
608.899	-64.08
609.155	-62.08
609.411	-77.08
609.667	-64.08
609.923	-48.08
610.179	-93.08
610.435	-264.08
610.691	-187.08
610.947	-24.08
611.203	-98.08
611.459	-137.08
611.714	-36.08
611.97	92.92
612.226	15.92
612.482	-181.08
612.738	-77.08
612.994	128.92
613.25	-20.08
613.505	-161.08
613.761	-126.08
614.017	-37.08
614.273	-48.08
614.529	-125.08
614.785	-169.08
615.04	-51.08
615.296	-33.08
615.552	-102.08
615.808	-81.08
616.063	2.92
616.319	-24.08
616.575	-136.08
616.831	-96.08
617.086	105.92
617.342	65.92
617.598	-68.08
617.854	-8.08
618.109	62.92
618.365	-103.08
618.621	-171.08
618.876	-50.08
619.132	58.92
619.388	0.92
619.643	-154.08
619.899	-69.08
620.155	15.92
620.41	6.92
620.666	-130.08
620.921	-76.08
621.177	44.92
621.433	70.92
621.688	-44.08
621.944	-123.08
622.199	-47.08
622.455	-37.08
622.71	-155.08
622.966	-135.08
623.221	-110.08
623.477	-85.08
623.732	-66.08
623.988	-147.08
624.243	-19.08
624.499	1.92
624.754	-159.08
625.01	-127.08
625.265	-47.08
625.521	59.92
625.776	-58.08
626.032	-49.08
626.287	-12.08
626.543	-73.08
626.798	-124.08
627.053	-73.08
627.309	-5.08
627.564	-81.08
627.82	-80.08
628.075	-6.08
628.33	-43.08
628.586	-142.08
628.841	-232.08
629.096	-103.08
629.352	-13.08
629.607	-134.08
629.862	-170.08
630.118	-52.08
630.373	-81.08
630.628	-38.08
630.884	-156.08
631.139	-92.08
631.394	59.92
631.649	-29.08
631.905	-161.08
632.16	-42.08
632.415	138.92
632.67	-41.08
632.926	-156.08
633.181	-166.08
633.436	-16.08
633.691	-75.08
633.946	-211.08
634.202	-192.08
634.457	-27.08
634.712	-84.08
634.967	-171.08
635.222	-193.08
635.477	-103.08
635.733	-104.08
635.988	-197.08
636.243	-163.08
636.498	-18.08
636.753	-42.08
637.008	-171.08
637.263	-87.08
637.518	-25.08
637.773	-53.08
638.028	-108.08
638.283	-78.08
638.539	42.92
638.794	-15.08
639.049	-153.08
639.304	-150.08
639.559	-85.08
639.814	-98.08
640.069	-159.08
640.324	-142.08
640.579	-43.08
640.834	-35.08
641.089	-153.08
641.344	-93.08
641.598	123.92
641.853	14.92
642.108	-147.08
642.363	-204.08
642.618	-19.08
642.873	-85.08
643.128	-191.08
643.383	-129.08
643.638	-19.08
643.893	22.92
644.148	-56.08
644.402	-128.08
644.657	-5.08
644.912	-67.08
645.167	-104.08
645.422	-32.08
645.677	-52.08
645.931	6.92
646.186	3.92
646.441	-82.08
646.696	-87.08
646.951	-94.08
647.205	-111.08
647.46	-88.08
647.715	-75.08
647.97	90.92
648.224	193.92
648.479	-14.08
648.734	99.92
648.989	41.92
649.243	-77.08
649.498	-108.08
649.753	-70.08
650.007	-46.08
650.262	-101.08
650.517	-99.08
650.771	-38.08
651.026	-104.08
651.281	-211.08
651.535	-78.08
651.79	-41.08
652.045	-65.08
652.299	-133.08
652.554	-126.08
652.809	-40.08
653.063	119.92
653.318	8.92
653.572	-91.08
653.827	55.92
654.081	-33.08
654.336	-200.08
654.591	-154.08
654.845	-33.08
655.1	-85.08
655.354	-131.08
655.609	-82.08
655.863	24.92
656.118	4.92
656.372	-141.08
656.627	-113.08
656.881	-10.08
657.136	-59.08
657.39	-177.08
657.645	-38.08
657.899	99.92
658.153	-23.08
658.408	-128.08
658.662	-67.08
658.917	-36.08
659.171	-126.08
659.426	-191.08
659.68	-112.08
659.934	-27.08
660.189	-47.08
660.443	-152.08
660.697	-0.08
660.952	82.92
661.206	-45.08
661.46	-208.08
661.715	-128.08
661.969	-7.08
662.223	-46.08
662.478	-130.08
662.732	-66.08
662.986	-21.08
663.241	-43.08
663.495	-170.08
663.749	-108.08
664.003	11.92
664.258	-67.08
664.512	-128.08
664.766	-91.08
665.02	-31.08
665.275	-1.08
665.529	-164.08
665.783	-124.08
666.037	-44.08
666.291	-68.08
666.546	-119.08
666.8	-90.08
667.054	-112.08
667.308	-72.08
667.562	-243.08
667.816	-156.08
668.071	-50.08
668.325	-145.08
668.579	-157.08
668.833	-93.08
669.087	57.92
669.341	-33.08
669.595	-169.08
669.849	-113.08
670.103	-58.08
670.357	-74.08
670.612	-114.08
670.866	-132.08
671.12	-66.08
671.374	-64.08
671.628	-93.08
671.882	-141.08
672.136	-63.08
672.39	-64.08
672.644	-219.08
672.898	-71.08
673.152	95.92
673.406	6.92
673.66	-102.08
673.914	-31.08
674.168	30.92
674.422	-48.08
674.675	-147.08
674.929	-60.08
675.183	46.92
675.437	-34.08
675.691	-97.08
675.945	-39.08
676.199	90.92
676.453	-23.08
676.707	-162.08
676.961	-147.08
677.214	-46.08
677.468	-50.08
677.722	-62.08
677.976	-76.08
678.23	-19.08
678.484	-16.08
678.737	-163.08
678.991	-101.08
679.245	-24.08
679.499	-88.08
679.753	-160.08
680.006	-76.08
680.26	26.92
680.514	36.92
680.768	-120.08
681.021	-54.08
681.275	-39.08
681.529	-51.08
681.783	-123.08
682.036	-119.08
682.29	-108.08
682.544	-73.08
682.797	-109.08
683.051	-142.08
683.305	-81.08
683.559	-69.08
683.812	-62.08
684.066	-68.08
684.32	-9.08
684.573	-68.08
684.827	-65.08
685.08	-31.08
685.334	61.92
685.588	-47.08
685.841	-178.08
686.095	-33.08
686.348	-18.08
686.602	-17.08
686.856	-46.08
687.109	-91.08
687.363	-53.08
687.616	-94.08
687.87	-223.08
688.123	-157.08
688.377	-59.08
688.63	-27.08
688.884	-25.08
689.137	78.92
689.391	72.92
689.644	-82.08
689.898	-176.08
690.151	-167.08
690.405	-35.08
690.658	-34.08
690.912	-95.08
691.165	-114.08
691.419	-57.08
691.672	-22.08
691.926	-97.08
692.179	-94.08
692.432	-23.08
692.686	-76.08
692.939	-196.08
693.193	-142.08
693.446	30.92
693.699	12.92
693.953	-33.08
694.206	-66.08
694.459	18.92
694.713	48.92
694.966	-108.08
695.219	-118.08
695.473	-35.08
695.726	-123.08
695.979	-177.08
696.233	-78.08
696.486	6.92
696.739	-28.08
696.992	-159.08
697.246	-44.08
697.499	47.92
697.752	-133.08
698.006	-158.08
698.259	-54.08
698.512	-56.08
698.765	-93.08
699.018	-126.08
699.272	-28.08
699.525	-55.08
699.778	-132.08
700.031	-167.08
700.284	-142.08
700.538	-26.08
700.791	-28.08
701.044	-86.08
701.297	-62.08
701.55	-49.08
701.803	-74.08
702.056	-189.08
702.31	-114.08
702.563	-3.08
702.816	-85.08
703.069	-231.08
703.322	-150.08
703.575	-35.08
703.828	-2.08
704.081	-108.08
704.334	-127.08
704.587	-71.08
704.84	-125.08
705.093	-125.08
705.346	4.92
705.599	-11.08
705.853	-26.08
706.106	25.92
706.359	252.92
706.612	-3.08
706.865	6.92
707.118	-166.08
707.37	-100.08
707.623	18.92
707.876	-35.08
708.129	-47.08
708.382	43.92
708.635	121.92
708.888	-54.08
709.141	-164.08
709.394	-64.08
709.647	38.92
709.9	-83.08
710.153	-212.08
710.406	-92.08
710.658	14.92
710.911	-60.08
711.164	-181.08
711.417	-139.08
711.67	-88.08
711.923	-28.08
712.176	-160.08
712.428	-116.08
712.681	-54.08
712.934	-21.08
713.187	-106.08
713.44	-154.08
713.692	-13.08
713.945	-83.08
714.198	-187.08
714.451	-198.08
714.704	-51.08
714.956	-4.08
715.209	1.92
715.462	-34.08
715.715	-6.08
715.967	-17.08
716.22	-157.08
716.473	-148.08
716.725	18.92
716.978	-39.08
717.231	-45.08
717.484	-10.08
717.736	-84.08
717.989	-153.08
718.242	-220.08
718.494	-108.08
718.747	14.92
718.999	-50.08
719.252	-48.08
719.505	-47.08
719.757	-33.08
720.01	-57.08
720.263	-114.08
720.515	-97.08
720.768	8.92
721.02	-19.08
721.273	-141.08
721.525	-166.08
721.778	-57.08
722.031	19.92
722.283	-141.08
722.536	-120.08
722.788	-49.08
723.041	-82.08
723.293	-155.08
723.546	-163.08
723.798	-49.08
724.051	22.92
724.303	-37.08
724.556	-46.08
724.808	103.92
725.061	23.92
725.313	-107.08
725.566	-98.08
725.818	-43.08
726.071	-74.08
726.323	-209.08
726.575	-123.08
726.828	26.92
727.08	43.92
727.333	-125.08
727.585	-109.08
727.837	-49.08
728.09	-34.08
728.342	-177.08
728.595	-87.08
728.847	82.92
729.099	-127.08
729.352	-148.08
729.604	-146.08
729.856	-40.08
730.109	-66.08
730.361	-152.08
730.613	-59.08
730.866	23.92
731.118	-102.08
731.37	-181.08
731.622	-159.08
731.875	-63.08
732.127	-14.08
732.379	-86.08
732.631	-6.08
732.884	5.92
733.136	-73.08
733.388	-176.08
733.64	-112.08
733.893	20.92
734.145	-27.08
734.397	-173.08
734.649	-172.08
734.901	-46.08
735.154	-117.08
735.406	-209.08
735.658	-147.08
735.91	-1.08
736.162	-54.08
736.414	-177.08
736.667	-88.08
736.919	-44.08
737.171	-132.08
737.423	-159.08
737.675	-104.08
737.927	13.92
738.179	-49.08
738.431	-101.08
738.684	-160.08
738.936	-75.08
739.188	-7.08
739.44	-193.08
739.692	-170.08
739.944	-136.08
740.196	-125.08
740.448	-172.08
740.7	-169.08
740.952	-94.08
741.204	-93.08
741.456	-188.08
741.708	-113.08
741.96	-104.08
742.212	-48.08
742.464	-52.08
742.716	-174.08
742.968	-71.08
743.22	-147.08
743.472	-214.08
743.724	-135.08
743.976	13.92
744.228	6.92
744.48	-229.08
744.732	-189.08
744.983	-16.08
745.235	-45.08
745.487	-114.08
745.739	-94.08
745.991	-119.08
746.243	-19.08
746.495	-180.08
746.747	-171.08
746.999	-62.08
747.25	-68.08
747.502	-115.08
747.754	-27.08
748.006	-78.08
748.258	3.92
748.51	19.92
748.761	-127.08
749.013	-53.08
749.265	23.92
749.517	-0.08
749.768	31.92
750.02	43.92
750.272	-19.08
750.524	-160.08
750.776	-206.08
751.027	-13.08
751.279	39.92
751.531	-190.08
751.782	-92.08
752.034	22.92
752.286	-86.08
752.538	-216.08
752.789	-101.08
753.041	-14.08
753.293	-45.08
753.544	-123.08
753.796	-117.08
754.048	-1.08
754.299	-26.08
754.551	-83.08
754.803	-124.08
755.054	-109.08
755.306	-39.08
755.558	-135.08
755.809	-116.08
756.061	28.92
756.312	-83.08
756.564	-90.08
756.816	-68.08
757.067	-63.08
757.319	-97.08
757.57	-130.08
757.822	-50.08
758.073	41.92
758.325	-16.08
758.577	-165.08
758.828	-148.08
759.08	86.92
759.331	85.92
759.583	-125.08
759.834	-35.08
760.086	-61.08
760.337	-94.08
760.589	-133.08
760.84	-129.08
761.092	-53.08
761.343	-60.08
761.595	-215.08
761.846	-75.08
762.097	-37.08
762.349	-99.08
762.6	-251.08
762.852	-97.08
763.103	59.92
763.355	-89.08
763.606	-177.08
763.857	-28.08
764.109	82.92
764.36	-33.08
764.612	-123.08
764.863	-37.08
765.114	-16.08
765.366	-137.08
765.617	-229.08
765.868	-152.08
766.12	8.92
766.371	4.92
766.622	-187.08
766.874	-112.08
767.125	28.92
767.376	-101.08
767.628	-179.08
767.879	-111.08
768.13	-0.08
768.381	-24.08
768.633	-88.08
768.884	-89.08
769.135	4.92
769.386	-19.08
769.638	-100.08
769.889	-91.08
770.14	-47.08
770.391	-121.08
770.643	-180.08
770.894	-184.08
771.145	-61.08
771.396	-119.08
771.647	-189.08
771.899	-79.08
772.15	-14.08
772.401	-34.08
772.652	-175.08
772.903	-159.08
773.154	164.92
773.406	414.92
773.657	-115.08
773.908	-126.08
774.159	-47.08
774.41	-35.08
774.661	-153.08
774.912	-107.08
775.163	59.92
775.414	61.92
775.666	-177.08
775.917	-156.08
776.168	-99.08
776.419	-85.08
776.67	-185.08
776.921	-181.08
777.172	-89.08
777.423	-51.08
777.674	-27.08
777.925	-43.08
778.176	-118.08
778.427	-100.08
778.678	-163.08
778.929	-145.08
779.18	-58.08
779.431	-135.08
779.682	-129.08
779.933	-81.08
780.184	-48.08
780.435	-85.08
780.686	-124.08
780.937	-56.08
781.188	-25.08
781.439	62.92
781.69	3.92
781.941	-71.08
782.191	-57.08
782.442	-73.08
782.693	-149.08
782.944	-165.08
783.195	-68.08
783.446	-42.08
783.697	-39.08
783.948	-130.08
784.199	-104.08
784.449	-135.08
784.7	-114.08
784.951	-84.08
785.202	43.92
785.453	11.92
785.704	-165.08
785.954	-188.08
786.205	-100.08
786.456	-164.08
786.707	-241.08
786.958	-196.08
787.208	-88.08
787.459	-126.08
787.71	-99.08
787.961	-130.08
788.211	-83.08
788.462	-71.08
788.713	-126.08
788.964	-132.08
789.214	-38.08
789.465	-20.08
789.716	-78.08
789.967	-86.08
790.217	-99.08
790.468	-134.08
790.719	-196.08
790.969	-156.08
791.22	-95.08
791.471	-44.08
791.721	-16.08
791.972	-111.08
792.223	-31.08
792.473	-102.08
792.724	-121.08
792.975	-145.08
793.225	-57.08
793.476	-100.08
793.726	-174.08
793.977	-72.08
794.228	42.92
794.478	-80.08
794.729	-168.08
794.979	-51.08
795.23	-14.08
795.481	-69.08
795.731	-171.08
795.982	-100.08
796.232	-117.08
796.483	-144.08
796.733	-194.08
796.984	-139.08
797.234	-62.08
797.485	-44.08
797.735	-183.08
797.986	-157.08
798.236	-32.08
798.487	-99.08
798.737	-101.08
798.988	-24.08
799.238	31.92
799.489	-65.08
799.739	-156.08
799.99	-87.08
800.24	15.92
800.491	44.92
800.741	-100.08
800.991	-150.08
801.242	-89.08
801.492	-61.08
801.743	-116.08
801.993	18.92
802.244	112.92
802.494	-44.08
802.744	-100.08
802.995	-64.08
803.245	-47.08
803.495	-78.08
803.746	-145.08
803.996	-55.08
804.246	-56.08
804.497	-44.08
804.747	-168.08
804.997	-105.08
805.248	-87.08
805.498	-121.08
805.748	-110.08
805.999	-187.08
806.249	-120.08
806.499	-113.08
806.75	-220.08
807	-182.08
807.25	-57.08
807.5	-130.08
807.751	-120.08
808.001	-57.08
808.251	-44.08
808.501	23.92
808.752	6.92
809.002	-49.08
809.252	-60.08
809.502	-115.08
809.752	-145.08
810.003	-179.08
810.253	-111.08
810.503	-72.08
810.753	-42.08
811.003	-37.08
811.254	-6.08
811.504	-69.08
811.754	-95.08
812.004	-85.08
812.254	132.92
812.504	-20.08
812.754	-125.08
813.005	-49.08
813.255	23.92
813.505	-63.08
813.755	-156.08
814.005	-80.08
814.255	-44.08
814.505	-85.08
814.755	-208.08
815.005	-168.08
815.255	-37.08
815.505	-91.08
815.756	-45.08
816.006	-53.08
816.256	-104.08
816.506	-155.08
816.756	-215.08
817.006	-164.08
817.256	-54.08
817.506	-64.08
817.756	-117.08
818.006	-100.08
818.256	-51.08
818.506	-69.08
818.756	-186.08
819.006	-126.08
819.256	-34.08
819.506	-103.08
819.756	-157.08
820.006	-77.08
820.255	-22.08
820.505	-52.08
820.755	-177.08
821.005	-126.08
821.255	-9.08
821.505	-60.08
821.755	-133.08
822.005	-36.08
822.255	14.92
822.505	-81.08
822.755	-59.08
823.004	-176.08
823.254	-152.08
823.504	-67.08
823.754	-69.08
824.004	-140.08
824.254	-49.08
824.504	-47.08
824.753	-17.08
825.003	-30.08
825.253	15.92
825.503	-85.08
825.753	-141.08
826.002	-56.08
826.252	152.92
826.502	-67.08
826.752	-155.08
827.002	-132.08
827.251	-31.08
827.501	-100.08
827.751	-161.08
828.001	-117.08
828.25	-16.08
828.5	-155.08
828.75	-194.08
829	-92.08
829.249	37.92
829.499	-123.08
829.749	-149.08
829.998	-71.08
830.248	-30.08
830.498	-142.08
830.748	-139.08
830.997	-84.08
831.247	-11.08
831.497	-28.08
831.746	-103.08
831.996	-18.08
832.246	107.92
832.495	118.92
832.745	-144.08
832.994	-139.08
833.244	16.92
833.494	-96.08
833.743	-200.08
833.993	-123.08
834.243	-51.08
834.492	-57.08
834.742	-92.08
834.991	-118.08
835.241	57.92
835.49	-93.08
835.74	-199.08
835.99	-109.08
836.239	-23.08
836.489	8.92
836.738	-93.08
836.988	-206.08
837.237	-82.08
837.487	34.92
837.736	-81.08
837.986	-112.08
838.235	-50.08
838.485	-91.08
838.734	-139.08
838.984	-49.08
839.233	-64.08
839.483	-155.08
839.732	-179.08
839.982	-89.08
840.231	-25.08
840.481	-39.08
840.73	-149.08
840.979	-84.08
841.229	-52.08
841.478	-66.08
841.728	-201.08
841.977	-219.08
842.227	-143.08
842.476	-164.08
842.725	-206.08
842.975	-149.08
843.224	-25.08
843.474	7.92
843.723	-116.08
843.972	-115.08
844.222	-64.08
844.471	-24.08
844.72	-143.08
844.97	-131.08
845.219	-24.08
845.468	-25.08
845.718	-105.08
845.967	-94.08
846.216	-27.08
846.466	15.92
846.715	-106.08
846.964	-82.08
847.214	-96.08
847.463	-143.08
847.712	-106.08
847.961	-133.08
848.211	-67.08
848.46	-67.08
848.709	-118.08
848.958	-151.08
849.208	-70.08
849.457	-81.08
849.706	-84.08
849.955	-119.08
850.205	-113.08
850.454	28.92
850.703	53.92
850.952	-12.08
851.201	11.92
851.451	-62.08
851.7	-55.08
851.949	-175.08
852.198	-56.08
852.447	-82.08
852.696	-175.08
852.946	-120.08
853.195	-12.08
853.444	3.92
853.693	-179.08
853.942	-195.08
854.191	-78.08
854.44	-49.08
854.689	-97.08
854.939	-134.08
855.188	-159.08
855.437	-129.08
855.686	-136.08
855.935	-102.08
856.184	-36.08
856.433	10.92
856.682	-69.08
856.931	-60.08
857.18	-27.08
857.429	-118.08
857.678	-159.08
857.927	-98.08
858.176	-64.08
858.425	-115.08
858.674	-203.08
858.924	-107.08
859.173	-88.08
859.422	-56.08
859.671	-182.08
859.92	-129.08
860.169	-68.08
860.417	-31.08
860.666	-103.08
860.915	-135.08
861.164	-96.08
861.413	-141.08
861.662	-195.08
861.911	-148.08
862.16	-31.08
862.409	-56.08
862.658	-201.08
862.907	-156.08
863.156	-48.08
863.405	-63.08
863.654	-159.08
863.903	-201.08
864.151	-102.08
864.4	-66.08
864.649	-127.08
864.898	-77.08
865.147	-38.08
865.396	6.92
865.645	-140.08
865.894	-97.08
866.142	25.92
866.391	-77.08
866.64	-184.08
866.889	-88.08
867.138	55.92
867.387	-40.08
867.635	-145.08
867.884	-88.08
868.133	11.92
868.382	-64.08
868.631	-180.08
868.879	-168.08
869.128	-60.08
869.377	-66.08
869.626	-129.08
869.874	-120.08
870.123	-14.08
870.372	-68.08
870.621	-194.08
870.869	-140.08
871.118	-36.08
871.367	-37.08
871.616	-169.08
871.864	-62.08
872.113	-16.08
872.362	-63.08
872.61	-113.08
872.859	-57.08
873.108	11.92
873.357	-97.08
873.605	-197.08
873.854	-165.08
874.103	-121.08
874.351	-114.08
874.6	-128.08
874.848	-97.08
875.097	-55.08
875.346	-57.08
875.594	-155.08
875.843	-47.08
876.092	88.92
876.34	-20.08
876.589	-129.08
876.837	-219.08
877.086	-127.08
877.335	-59.08
877.583	-110.08
877.832	-51.08
878.08	62.92
878.329	-67.08
878.578	-143.08
878.826	-125.08
879.075	-27.08
879.323	-17.08
879.572	-104.08
879.82	17.92
880.069	-44.08
880.317	-19.08
880.566	-135.08
880.814	-51.08
881.063	71.92
881.311	-16.08
881.56	8.92
881.808	-90.08
882.057	-6.08
882.305	-42.08
882.554	-34.08
882.802	-132.08
883.051	-84.08
883.299	-58.08
883.548	-116.08
883.796	-21.08
884.045	-19.08
884.293	-107.08
884.541	-203.08
884.79	-211.08
885.038	-103.08
885.287	-90.08
885.535	-78.08
885.783	-53.08
886.032	-99.08
886.28	-130.08
886.529	-171.08
886.777	-119.08
887.025	38.92
887.274	-73.08
887.522	-143.08
887.77	-124.08
888.019	-100.08
888.267	-117.08
888.516	-189.08
888.764	-165.08
889.012	-82.08
889.261	-99.08
889.509	-171.08
889.757	-141.08
890.005	-106.08
890.254	-153.08
890.502	-119.08
890.75	71.92
890.999	80.92
891.247	-18.08
891.495	-57.08
891.743	-86.08
891.992	61.92
892.24	-38.08
892.488	-164.08
892.737	-150.08
892.985	-53.08
893.233	-50.08
893.481	-89.08
893.729	-130.08
893.978	31.92
894.226	61.92
894.474	-107.08
894.722	-104.08
894.97	-66.08
895.219	-94.08
895.467	-82.08
895.715	-49.08
895.963	-77.08
896.211	-113.08
896.46	-196.08
896.708	-91.08
896.956	-3.08
897.204	80.92
897.452	-38.08
897.7	-98.08
897.948	-29.08
898.197	-68.08
898.445	-123.08
898.693	-112.08
898.941	-35.08
899.189	-50.08
899.437	-101.08
899.685	-4.08
899.933	-60.08
900.181	-57.08
900.43	-142.08
900.678	-121.08
900.926	-40.08
901.174	-75.08
901.422	-110.08
901.67	-100.08
901.918	-36.08
902.166	-77.08
902.414	-195.08
902.662	-140.08
902.91	-32.08
903.158	-68.08
903.406	-115.08
903.654	-100.08
903.902	-66.08
904.15	-96.08
904.398	-199.08
904.646	-103.08
904.894	-10.08
905.142	-12.08
905.39	-59.08
905.638	-121.08
905.886	-92.08
906.134	-100.08
906.382	-100.08
906.63	-150.08
906.878	-54.08
907.126	-74.08
907.374	-133.08
907.622	-123.08
907.869	-4.08
908.117	-25.08
908.365	-107.08
908.613	-136.08
908.861	-125.08
909.109	-149.08
909.357	-177.08
909.605	-95.08
909.853	-9.08
910.1	-88.08
910.348	-243.08
910.596	-204.08
910.844	-23.08
911.092	12.92
911.34	-97.08
911.588	-71.08
911.835	-21.08
912.083	-61.08
912.331	-81.08
912.579	-46.08
912.827	144.92
913.075	19.92
913.322	-133.08
913.57	-127.08
913.818	9.92
914.066	-60.08
914.313	-128.08
914.561	-36.08
914.809	-20.08
915.057	-79.08
915.305	-92.08
915.552	-101.08
915.8	11.92
916.048	-108.08
916.296	-181.08
916.543	-63.08
916.791	37.92
917.039	-49.08
917.286	-177.08
917.534	-140.08
917.782	-0.08
918.03	-73.08
918.277	-181.08
918.525	-190.08
918.773	-86.08
919.02	-82.08
919.268	-145.08
919.516	-115.08
919.763	-117.08
920.011	-93.08
920.259	-207.08
920.506	-115.08
920.754	-5.08
921.002	-22.08
921.249	-65.08
921.497	-99.08
921.745	-69.08
921.992	-53.08
922.24	-188.08
922.487	-54.08
922.735	104.92
922.983	18.92
923.23	-67.08
923.478	-136.08
923.725	-56.08
923.973	-23.08
924.221	-55.08
924.468	-24.08
924.716	-15.08
924.963	-58.08
925.211	-125.08
925.458	-54.08
925.706	52.92
925.953	74.92
926.201	-109.08
926.448	-120.08
926.696	-29.08
926.944	-48.08
927.191	-112.08
927.439	-103.08
927.686	-65.08
927.934	-42.08
928.181	-149.08
928.429	-149.08
928.676	-82.08
928.923	-161.08
929.171	-193.08
929.418	-38.08
929.666	28.92
929.913	9.92
930.161	-188.08
930.408	-141.08
930.656	-63.08
930.903	-16.08
931.151	-151.08
931.398	-86.08
931.645	35.92
931.893	-74.08
932.14	-98.08
932.388	-84.08
932.635	51.92
932.882	96.92
933.13	-26.08
933.377	-112.08
933.625	-14.08
933.872	-83.08
934.119	-145.08
934.367	-97.08
934.614	-98.08
934.861	-108.08
935.109	-105.08
935.356	-49.08
935.603	1.92
935.851	-54.08
936.098	-125.08
936.345	-26.08
936.593	0.92
936.84	-48.08
937.087	-197.08
937.335	-115.08
937.582	-37.08
937.829	-32.08
938.077	-67.08
938.324	-80.08
938.571	-5.08
938.818	-84.08
939.066	-140.08
939.313	-166.08
939.56	-39.08
939.807	-37.08
940.055	-176.08
940.302	-135.08
940.549	66.92
940.796	-17.08
941.044	-94.08
941.291	-83.08
941.538	81.92
941.785	-39.08
942.033	-104.08
942.28	-32.08
942.527	-0.08
942.774	-30.08
943.021	-169.08
943.269	-136.08
943.516	-18.08
943.763	-5.08
944.01	-94.08
944.257	-25.08
944.504	53.92
944.752	-9.08
944.999	-56.08
945.246	-135.08
945.493	-65.08
945.74	-59.08
945.987	-131.08
946.234	-75.08
946.482	24.92
946.729	-81.08
946.976	-144.08
947.223	-111.08
947.47	50.92
947.717	-1.08
947.964	12.92
948.211	-27.08
948.458	28.92
948.705	-32.08
948.952	-137.08
949.2	-64.08
949.447	66.92
949.694	67.92
949.941	-95.08
950.188	-104.08
950.435	-85.08
950.682	-55.08
950.929	-176.08
951.176	-119.08
951.423	30.92
951.67	4.92
951.917	-7.08
952.164	-24.08
952.411	21.92
952.658	78.92
952.905	-81.08
953.152	-147.08
953.399	-25.08
953.646	-34.08
953.893	-131.08
954.14	-85.08
954.387	-47.08
954.634	-59.08
954.881	-113.08
955.128	-46.08
955.375	-60.08
955.622	-48.08
955.869	-65.08
956.115	-92.08
956.362	-1.08
956.609	-32.08
956.856	-103.08
957.103	-102.08
957.35	17.92
957.597	-8.08
957.844	-110.08
958.091	-76.08
958.338	7.92
958.585	-45.08
958.831	-215.08
959.078	-134.08
959.325	32.92
959.572	-95.08
959.819	-180.08
960.066	-198.08
960.313	-60.08
960.559	-82.08
960.806	-201.08
961.053	-148.08
961.3	7.92
961.547	23.92
961.794	-169.08
962.04	-3.08
962.287	31.92
962.534	-119.08
962.781	-139.08
963.028	-63.08
963.274	57.92
963.521	-57.08
963.768	-138.08
964.015	-92.08
964.262	84.92
964.508	-66.08
964.755	-152.08
965.002	-131.08
965.249	-85.08
965.495	-141.08
965.742	-165.08
965.989	-153.08
966.236	-24.08
966.482	-95.08
966.729	-148.08
966.976	-172.08
967.222	-100.08
967.469	-88.08
967.716	-149.08
967.963	-152.08
968.209	-68.08
968.456	-103.08
968.703	-203.08
968.949	-113.08
969.196	68.92
969.443	80.92
969.689	-152.08
969.936	-178.08
970.183	-84.08
970.429	-142.08
970.676	-172.08
970.923	-106.08
971.169	-39.08
971.416	-110.08
971.663	-140.08
971.909	-87.08
972.156	-23.08
972.402	-51.08
972.649	-119.08
972.896	-87.08
973.142	-52.08
973.389	-40.08
973.635	-145.08
973.882	-18.08
974.129	56.92
974.375	-71.08
974.622	-155.08
974.868	-139.08
975.115	-61.08
975.361	-110.08
975.608	-129.08
975.855	-21.08
976.101	3.92
976.348	-65.08
976.594	-129.08
976.841	-68.08
977.087	-65.08
977.334	-33.08
977.58	-163.08
977.827	-158.08
978.073	-19.08
978.32	-43.08
978.566	-180.08
978.813	-93.08
979.059	-40.08
979.306	-65.08
979.552	-161.08
979.799	-95.08
980.045	-89.08
980.292	-78.08
980.538	-144.08
980.785	-159.08
981.031	-117.08
981.278	-142.08
981.524	-196.08
981.771	-49.08
982.017	100.92
982.263	-2.08
982.51	-141.08
982.756	-77.08
983.003	-15.08
983.249	-69.08
983.495	-150.08
983.742	-158.08
983.988	-83.08
984.235	-56.08
984.481	-163.08
984.727	-156.08
984.974	-20.08
985.22	-18.08
985.467	-92.08
985.713	-102.08
985.959	17.92
986.206	-16.08
986.452	-118.08
986.698	-56.08
986.945	-39.08
987.191	6.92
987.437	3.92
987.684	-47.08
987.93	105.92
988.176	14.92
988.423	-183.08
988.669	-104.08
988.915	75.92
989.162	-59.08
989.408	-174.08
989.654	-109.08
989.901	-59.08
990.147	-66.08
990.393	-66.08
990.639	-7.08
990.886	4.92
991.132	63.92
991.378	12.92
991.625	114.92
991.871	90.92
992.117	-1.08
992.363	-60.08
992.61	-34.08
992.856	65.92
993.102	-66.08
993.348	-120.08
993.594	-101.08
993.841	-48.08
994.087	84.92
994.333	-59.08
994.579	-81.08
994.826	-33.08
995.072	-3.08
995.318	-211.08
995.564	-161.08
995.81	-33.08
996.057	-60.08
996.303	-163.08
996.549	-146.08
996.795	-33.08
997.041	-67.08
997.287	-100.08
997.534	-116.08
997.78	-73.08
998.026	-41.08
998.272	-160.08
998.518	-180.08
998.764	-28.08
999.01	10.92
999.256	-86.08
999.503	-126.08
999.749	-110.08
999.995	-146.08
1000.241	-171.08
1000.487	-100.08
1000.733	-39.08
1000.979	-83.08
1001.225	-118.08
1001.471	-46.08
1001.718	0.92
1001.964	28.92
1002.21	-153.08
1002.456	-132.08
1002.702	30.92
1002.948	-27.08
1003.194	-106.08
1003.44	-145.08
1003.686	-53.08
1003.932	-102.08
1004.178	-153.08
1004.424	-80.08
1004.67	59.92
1004.916	39.92
1005.162	-77.08
1005.408	-123.08
1005.654	2.92
1005.9	-157.08
1006.146	-195.08
1006.392	-121.08
1006.638	-34.08
1006.884	-65.08
1007.13	-155.08
1007.376	-180.08
1007.622	4.92
1007.868	32.92
1008.114	-111.08
1008.36	-47.08
1008.606	-6.08
1008.852	10.92
1009.098	-53.08
1009.344	-24.08
1009.59	-48.08
1009.836	-171.08
1010.082	-234.08
1010.328	-129.08
1010.574	-36.08
1010.82	-134.08
1011.065	-213.08
1011.311	-201.08
1011.557	-83.08
1011.803	-105.08
1012.049	-162.08
1012.295	-120.08
1012.541	-74.08
1012.787	-76.08
1013.033	-215.08
1013.278	-211.08
1013.524	-61.08
1013.77	0.92
1014.016	-108.08
1014.262	-105.08
1014.508	10.92
1014.754	-151.08
1015	-180.08
1015.245	-4.08
1015.491	28.92
1015.737	-22.08
1015.983	-167.08
1016.229	-192.08
1016.475	-77.08
1016.72	70.92
1016.966	78.92
1017.212	-40.08
1017.458	29.92
1017.704	-40.08
1017.949	-169.08
1018.195	-4.08
1018.441	96.92
1018.687	43.92
1018.933	-115.08
1019.178	-121.08
1019.424	35.92
1019.67	47.92
1019.916	-164.08
1020.161	-115.08
1020.407	-29.08
1020.653	-95.08
1020.899	-149.08
1021.144	-89.08
1021.39	-9.08
1021.636	-112.08
1021.882	-193.08
1022.127	-77.08
1022.373	79.92
1022.619	19.92
1022.865	-102.08
1023.11	-109.08
1023.356	16.92
1023.602	-53.08
1023.847	-105.08
1024.093	-61.08
1024.339	-91.08
1024.584	-109.08
1024.83	-124.08
1025.076	-116.08
1025.321	11.92
1025.567	-18.08
1025.813	-119.08
1026.058	-56.08
1026.304	1.92
1026.55	-70.08
1026.795	-97.08
1027.041	-85.08
1027.287	-21.08
1027.532	6.92
1027.778	-38.08
1028.024	-73.08
1028.269	-15.08
1028.515	-121.08
1028.76	-176.08
1029.006	-97.08
1029.252	15.92
1029.497	-51.08
1029.743	-74.08
1029.989	-137.08
1030.234	1.92
1030.48	75.92
1030.725	-107.08
1030.971	-66.08
1031.216	50.92
1031.462	-30.08
1031.708	-166.08
1031.953	-131.08
1032.199	-48.08
1032.444	-18.08
1032.69	-73.08
1032.935	-94.08
1033.181	30.92
1033.426	-87.08
1033.672	-231.08
1033.918	-177.08
1034.163	-55.08
1034.409	-76.08
1034.654	-143.08
1034.9	-45.08
1035.145	11.92
1035.391	-61.08
1035.636	-164.08
1035.882	-85.08
1036.127	-93.08
1036.373	-127.08
1036.618	-217.08
1036.864	-119.08
1037.109	30.92
1037.355	-63.08
1037.6	-132.08
1037.845	-95.08
1038.091	104.92
1038.336	63.92
1038.582	74.92
1038.827	142.92
1039.073	-20.08
1039.318	-100.08
1039.564	-197.08
1039.809	-121.08
1040.055	59.92
1040.3	41.92
1040.545	-110.08
1040.791	-115.08
1041.036	-57.08
1041.282	-8.08
1041.527	32.92
1041.772	-148.08
1042.018	-68.08
1042.263	-36.08
1042.509	-174.08
1042.754	-146.08
1042.999	-29.08
1043.245	-43.08
1043.49	-207.08
1043.736	-126.08
1043.981	-48.08
1044.226	-37.08
1044.472	-45.08
1044.717	-47.08
1044.962	42.92
1045.208	-36.08
1045.453	-246.08
1045.698	-167.08
1045.944	27.92
1046.189	-15.08
1046.434	-103.08
1046.68	-96.08
1046.925	66.92
1047.17	-84.08
1047.416	-242.08
1047.661	-137.08
1047.906	4.92
1048.152	-13.08
1048.397	-98.08
1048.642	-120.08
1048.887	57.92
1049.133	72.92
1049.378	-104.08
1049.623	-117.08
1049.869	0.92
1050.114	-53.08
1050.359	-126.08
1050.604	-58.08
1050.85	97.92
1051.095	-36.08
1051.34	-151.08
1051.585	-79.08
1051.831	120.92
1052.076	-24.08
1052.321	-241.08
1052.566	-137.08
1052.812	51.92
1053.057	-45.08
1053.302	-112.08
1053.547	-23.08
1053.792	28.92
1054.038	19.92
1054.283	-163.08
1054.528	-100.08
1054.773	-14.08
1055.018	-31.08
1055.264	-125.08
1055.509	-152.08
1055.754	-44.08
1055.999	-106.08
1056.244	-180.08
1056.49	-116.08
1056.735	-3.08
1056.98	-61.08
1057.225	-169.08
1057.47	18.92
1057.715	-52.08
1057.96	-134.08
1058.206	-171.08
1058.451	-58.08
1058.696	59.92
1058.941	-7.08
1059.186	-181.08
1059.431	-148.08
1059.676	47.92
1059.922	-4.08
1060.167	85.92
1060.412	263.92
1060.657	44.92
1060.902	-16.08
1061.147	-202.08
1061.392	-145.08
1061.637	13.92
1061.882	-51.08
1062.127	-209.08
1062.373	-194.08
1062.618	64.92
1062.863	92.92
1063.108	-91.08
1063.353	-151.08
1063.598	-45.08
1063.843	-72.08
1064.088	-159.08
1064.333	-148.08
1064.578	10.92
1064.823	19.92
1065.068	-227.08
1065.313	-147.08
1065.558	20.92
1065.803	7.92
1066.048	-165.08
1066.293	-157.08
1066.538	50.92
1066.783	-27.08
1067.028	-217.08
1067.273	-179.08
1067.518	23.92
1067.763	-60.08
1068.008	-229.08
1068.253	-150.08
1068.498	32.92
1068.743	-28.08
1068.988	-188.08
1069.233	-195.08
1069.478	23.92
1069.723	89.92
1069.968	-111.08
1070.213	-52.08
1070.458	46.92
1070.703	-50.08
1070.948	-227.08
1071.193	-104.08
1071.438	28.92
1071.683	39.92
1071.928	-71.08
1072.173	-91.08
1072.418	-31.08
1072.663	-55.08
1072.908	-173.08
1073.152	-123.08
1073.397	32.92
1073.642	-70.08
1073.887	-114.08
1074.132	-5.08
1074.377	-12.08
1074.622	-33.08
1074.867	-153.08
1075.112	-89.08
1075.357	99.92
1075.601	-60.08
1075.846	-109.08
1076.091	-11.08
1076.336	40.92
1076.581	-100.08
1076.826	-203.08
1077.071	-101.08
1077.315	146.92
1077.56	71.92
1077.805	-138.08
1078.05	-102.08
1078.295	-38.08
1078.54	-54.08
1078.785	-188.08
1079.029	-132.08
1079.274	33.92
1079.519	-105.08
1079.764	-191.08
1080.009	-72.08
1080.253	6.92
1080.498	-89.08
1080.743	-241.08
1080.988	-92.08
1081.233	127.92
1081.478	66.92
1081.722	-142.08
1081.967	-36.08
1082.212	113.92
1082.457	7.92
1082.701	-127.08
1082.946	-94.08
1083.191	36.92
1083.436	-70.08
1083.681	-223.08
1083.925	-105.08
1084.17	-29.08
1084.415	-8.08
1084.66	-210.08
1084.904	-109.08
1085.149	-31.08
1085.394	-53.08
1085.639	-216.08
1085.883	-112.08
1086.128	131.92
1086.373	149.92
1086.617	-95.08
1086.862	-164.08
1087.107	-49.08
1087.352	-76.08
1087.596	-154.08
1087.841	-21.08
1088.086	22.92
1088.33	-13.08
1088.575	-248.08
1088.82	-117.08
1089.064	57.92
1089.309	-83.08
1089.554	-196.08
1089.798	-163.08
1090.043	31.92
1090.288	-29.08
1090.533	-219.08
1090.777	-132.08
1091.022	14.92
1091.266	30.92
1091.511	-128.08
1091.756	-50.08
1092	91.92
1092.245	71.92
1092.49	-165.08
1092.734	-127.08
1092.979	78.92
1093.224	-35.08
1093.468	-193.08
1093.713	-144.08
1093.957	5.92
1094.202	-62.08
1094.447	-238.08
1094.691	-111.08
1094.936	45.92
1095.181	0.92
1095.425	-175.08
1095.67	-163.08
1095.914	16.92
1096.159	-4.08
1096.403	-151.08
1096.648	-64.08
1096.893	48.92
1097.137	-88.08
1097.382	-235.08
1097.626	-147.08
1097.871	31.92
1098.115	-29.08
1098.36	-192.08
1098.605	-99.08
1098.849	-37.08
1099.094	-110.08
1099.338	-204.08
1099.583	-119.08
1099.827	109.92
1100.072	25.92
1100.316	-166.08
1100.561	-122.08
1100.805	33.92
1101.05	22.92
1101.294	-167.08
1101.539	-167.08
1101.783	-4.08
1102.028	4.92
1102.273	-145.08
1102.517	-84.08
1102.761	40.92
1103.006	-75.08
1103.25	-280.08
1103.495	-162.08
1103.739	42.92
1103.984	103.92
1104.228	-107.08
1104.473	-31.08
1104.717	28.92
1104.962	-5.08
1105.206	-112.08
1105.451	-149.08
1105.695	18.92
1105.94	-8.08
1106.184	-148.08
1106.429	-83.08
1106.673	6.92
1106.917	62.92
1107.162	-162.08
1107.406	-31.08
1107.651	122.92
1107.895	-84.08
1108.14	-193.08
1108.384	-96.08
1108.628	121.92
1108.873	101.92
1109.117	-137.08
1109.362	-131.08
1109.606	-6.08
1109.85	-13.08
1110.095	-164.08
1110.339	-94.08
1110.584	88.92
1110.828	34.92
1111.072	-84.08
1111.317	-123.08
1111.561	-16.08
1111.806	-42.08
1112.05	-181.08
1112.294	-91.08
1112.539	31.92
1112.783	-5.08
1113.027	-124.08
1113.272	-125.08
1113.516	-35.08
1113.76	-44.08
1114.005	-156.08
1114.249	-82.08
1114.493	64.92
1114.738	86.92
1114.982	-55.08
1115.226	-81.08
1115.471	3.92
1115.715	-3.08
1115.959	-168.08
1116.204	-168.08
1116.448	-3.08
1116.692	-100.08
1116.937	-183.08
1117.181	-28.08
1117.425	-22.08
1117.67	-88.08
1117.914	-167.08
1118.158	-106.08
1118.402	125.92
1118.647	50.92
1118.891	-101.08
1119.135	-24.08
1119.38	124.92
1119.624	18.92
1119.868	-132.08
1120.112	-151.08
1120.357	-64.08
1120.601	-123.08
1120.845	-217.08
1121.089	-144.08
1121.334	40.92
