Data from HR4C21111__4__09-39-58-870.txt Node

Date: Mon Feb 22 09:39:58 IST 2021
User: Kapil
Spectrometer: HR4C2111
Trigger mode: 4
Integration Time (sec): 2.300000E0
Scans to average: 1
Electric dark correction enabled: true
Nonlinearity correction enabled: false
Boxcar width: 0
XAxis mode: Wavelengths
Number of Pixels in Spectrum: 3648
>>>>>Begin Spectral Data<<<<<
189.472	-454.31
189.745	-454.31
190.017	-454.31
190.289	-456.31
190.561	-302.31
190.834	-32.31
191.106	-112.31
191.378	31.69
191.65	0.69
191.923	-139.31
192.195	-100.31
192.467	139.69
192.739	104.69
193.011	-30.31
193.284	91.69
193.556	168.69
193.828	-14.31
194.1	-108.31
194.372	-115.31
194.644	55.69
194.916	72.69
195.188	-153.31
195.46	-82.31
195.732	42.69
196.004	-30.31
196.276	-114.31
196.548	-51.31
196.82	81.69
197.092	60.69
197.364	-123.31
197.636	-79.31
197.908	33.69
198.18	-33.31
198.452	-94.31
198.724	-58.31
198.996	49.69
199.268	57.69
199.54	-34.31
199.811	-122.31
200.083	90.69
200.355	24.69
200.627	-203.31
200.899	-73.31
201.171	40.69
201.442	-66.31
201.714	-196.31
201.986	-101.31
202.258	57.69
202.529	100.69
202.801	-8.31
203.073	68.69
203.345	177.69
203.616	-10.31
203.888	-140.31
204.16	-150.31
204.431	69.69
204.703	-17.31
204.974	-156.31
205.246	-17.31
205.518	163.69
205.789	-12.31
206.061	-143.31
206.332	-115.31
206.604	17.69
206.876	95.69
207.147	106.69
207.419	3.69
207.69	129.69
207.962	-27.31
208.233	-191.31
208.505	6.69
208.776	178.69
209.047	79.69
209.319	-117.31
209.59	-65.31
209.862	153.69
210.133	56.69
210.404	-142.31
210.676	-107.31
210.947	59.69
211.219	54.69
211.49	-125.31
211.761	-42.31
212.033	32.69
212.304	-48.31
212.575	-195.31
212.846	-91.31
213.118	37.69
213.389	-42.31
213.66	-96.31
213.931	-42.31
214.203	28.69
214.474	-37.31
214.745	-132.31
215.016	127.69
215.287	411.69
215.559	58.69
215.83	-123.31
216.101	-74.31
216.372	19.69
216.643	80.69
216.914	13.69
217.185	-76.31
217.456	150.69
217.727	20.69
217.998	-153.31
218.269	-49.31
218.54	41.69
218.811	0.69
219.082	-104.31
219.353	-72.31
219.624	-14.31
219.895	-41.31
220.166	-127.31
220.437	-110.31
220.708	84.69
220.979	-14.31
221.25	-134.31
221.521	-84.31
221.792	30.69
222.063	80.69
222.334	46.69
222.604	177.69
222.875	168.69
223.146	88.69
223.417	-173.31
223.688	-35.31
223.958	128.69
224.229	-49.31
224.5	-193.31
224.771	-68.31
225.041	84.69
225.312	64.69
225.583	-98.31
225.854	-60.31
226.124	88.69
226.395	-18.31
226.666	-118.31
226.936	-90.31
227.207	70.69
227.478	-43.31
227.748	-102.31
228.019	50.69
228.289	245.69
228.56	-35.31
228.831	-68.31
229.101	38.69
229.372	64.69
229.642	-27.31
229.913	-166.31
230.183	-128.31
230.454	11.69
230.724	16.69
230.995	-99.31
231.265	-65.31
231.536	56.69
231.806	38.69
232.076	-116.31
232.347	-125.31
232.617	26.69
232.888	29.69
233.158	-63.31
233.428	-112.31
233.699	-1.31
233.969	-28.31
234.239	-140.31
234.51	-84.31
234.78	47.69
235.05	-20.31
235.321	-126.31
235.591	-55.31
235.861	75.69
236.131	-49.31
236.402	-181.31
236.672	-91.31
236.942	39.69
237.212	34.69
237.483	-60.31
237.753	9.69
238.023	159.69
238.293	15.69
238.563	-71.31
238.833	-98.31
239.103	69.69
239.374	-27.31
239.644	-152.31
239.914	-34.31
240.184	138.69
240.454	-7.31
240.724	-164.31
240.994	-65.31
241.264	18.69
241.534	55.69
241.804	-28.31
242.074	-86.31
242.344	-19.31
242.614	-62.31
242.884	-167.31
243.154	-124.31
243.424	46.69
243.694	74.69
243.964	-97.31
244.234	-75.31
244.503	118.69
244.773	8.69
245.043	-219.31
245.313	-142.31
245.583	120.69
245.853	92.69
246.123	-162.31
246.392	-108.31
246.662	-4.31
246.932	-22.31
247.202	-158.31
247.471	-56.31
247.741	237.69
248.011	88.69
248.281	-141.31
248.55	-98.31
248.82	47.69
249.09	2.69
249.359	-101.31
249.629	-78.31
249.899	60.69
250.168	56.69
250.438	-24.31
250.708	-94.31
250.977	86.69
251.247	70.69
251.516	-109.31
251.786	-38.31
252.055	114.69
252.325	2.69
252.595	-123.31
252.864	-68.31
253.134	38.69
253.403	-45.31
253.673	-172.31
253.942	-95.31
254.212	49.69
254.481	1.69
254.75	-157.31
255.02	-91.31
255.289	70.69
255.559	-10.31
255.828	-127.31
256.097	-34.31
256.367	26.69
256.636	-67.31
256.906	-128.31
257.175	-15.31
257.444	228.69
257.714	51.69
257.983	-75.31
258.252	-43.31
258.521	7.69
258.791	30.69
259.06	-114.31
259.329	-39.31
259.598	71.69
259.868	-10.31
260.137	-111.31
260.406	24.69
260.675	89.69
260.944	15.69
261.214	-131.31
261.483	-56.31
261.752	161.69
262.021	-4.31
262.29	-167.31
262.559	-108.31
262.828	22.69
263.097	-44.31
263.366	-213.31
263.635	-92.31
263.905	132.69
264.174	17.69
264.443	-211.31
264.712	-119.31
264.981	40.69
265.25	-38.31
265.519	-144.31
265.788	-163.31
266.057	31.69
266.325	47.69
266.594	-73.31
266.863	-122.31
267.132	28.69
267.401	3.69
267.67	-199.31
267.939	-134.31
268.208	31.69
268.477	70.69
268.745	-124.31
269.014	-90.31
269.283	124.69
269.552	44.69
269.821	-112.31
270.089	-19.31
270.358	3.69
270.627	-13.31
270.896	-115.31
271.164	-152.31
271.433	23.69
271.702	85.69
271.971	-150.31
272.239	-129.31
272.508	25.69
272.777	-24.31
273.045	-27.31
273.314	-40.31
273.583	106.69
273.851	-5.31
274.12	-134.31
274.388	-115.31
274.657	7.69
274.926	10.69
275.194	-161.31
275.463	-75.31
275.731	36.69
276	172.69
276.268	358.69
276.537	-77.31
276.805	27.69
277.074	25.69
277.342	-163.31
277.611	-95.31
277.879	109.69
278.148	40.69
278.416	-136.31
278.684	-107.31
278.953	-10.31
279.221	-26.31
279.49	-188.31
279.758	-103.31
280.026	6.69
280.295	7.69
280.563	-116.31
280.831	631.69
281.1	1640.69
281.368	168.69
281.636	-93.31
281.904	-106.31
282.173	-12.31
282.441	-43.31
282.709	-98.31
282.977	18.69
283.246	45.69
283.514	-40.31
283.782	-62.31
284.05	25.69
284.318	47.69
284.587	-39.31
284.855	-126.31
285.123	-39.31
285.391	70.69
285.659	43.69
285.927	-142.31
286.195	-51.31
286.463	56.69
286.732	-18.31
287	-131.31
287.268	-63.31
287.536	33.69
287.804	-37.31
288.072	-140.31
288.34	-89.31
288.608	71.69
288.876	-18.31
289.144	-117.31
289.412	-24.31
289.68	39.69
289.948	-42.31
290.215	-132.31
290.483	-112.31
290.751	99.69
291.019	104.69
291.287	-170.31
291.555	-122.31
291.823	25.69
292.091	-10.31
292.358	-84.31
292.626	-33.31
292.894	69.69
293.162	49.69
293.43	-116.31
293.697	-88.31
293.965	37.69
294.233	-46.31
294.501	-159.31
294.768	-68.31
295.036	72.69
295.304	29.69
295.572	-132.31
295.839	-103.31
296.107	102.69
296.375	-1.31
296.642	-136.31
296.91	-127.31
297.178	40.69
297.445	170.69
297.713	87.69
297.98	-83.31
298.248	-30.31
298.516	-48.31
298.783	-126.31
299.051	-113.31
299.318	20.69
299.586	-17.31
299.853	-88.31
300.121	-85.31
300.388	35.69
300.656	-14.31
300.923	-144.31
301.191	-44.31
301.458	48.69
301.726	-11.31
301.993	-134.31
302.26	-93.31
302.528	40.69
302.795	-13.31
303.063	-77.31
303.33	-48.31
303.597	32.69
303.865	18.69
304.132	-127.31
304.399	-136.31
304.667	-20.31
304.934	13.69
305.201	-111.31
305.469	-13.31
305.736	69.69
306.003	47.69
306.27	-60.31
306.538	-96.31
306.805	-2.31
307.072	-37.31
307.339	-102.31
307.606	-45.31
307.874	152.69
308.141	56.69
308.408	-128.31
308.675	-113.31
308.942	-51.31
309.209	-57.31
309.477	-114.31
309.744	-88.31
310.011	28.69
310.278	47.69
310.545	-6.31
310.812	-38.31
311.079	141.69
311.346	202.69
311.613	53.69
311.88	-30.31
312.147	-61.31
312.414	-33.31
312.681	-97.31
312.948	-19.31
313.215	133.69
313.482	87.69
313.749	-105.31
314.016	-182.31
314.283	-53.31
314.55	54.69
314.817	-102.31
315.083	-126.31
315.35	-80.31
315.617	-133.31
315.884	-143.31
316.151	56.69
316.418	150.69
316.684	-17.31
316.951	-176.31
317.218	-113.31
317.485	-4.31
317.752	-42.31
318.018	-105.31
318.285	-15.31
318.552	23.69
318.819	-52.31
319.085	-135.31
319.352	-43.31
319.619	58.69
319.885	-14.31
320.152	-180.31
320.419	-89.31
320.685	47.69
320.952	-22.31
321.219	-79.31
321.485	57.69
321.752	5.69
322.019	-61.31
322.285	9.69
322.552	-17.31
322.818	134.69
323.085	-12.31
323.351	-130.31
323.618	-2.31
323.884	53.69
324.151	-62.31
324.417	-41.31
324.684	-79.31
324.95	-41.31
325.217	-128.31
325.483	-174.31
325.75	-38.31
326.016	7.69
326.283	-20.31
326.549	-187.31
326.815	-87.31
327.082	99.69
327.348	19.69
327.615	-103.31
327.881	-22.31
328.147	132.69
328.414	145.69
328.68	25.69
328.946	-23.31
329.212	32.69
329.479	12.69
329.745	-114.31
330.011	-104.31
330.278	17.69
330.544	-36.31
330.81	-33.31
331.076	-11.31
331.342	-27.31
331.609	-33.31
331.875	-71.31
332.141	-97.31
332.407	13.69
332.673	1.69
332.94	-5.31
333.206	-41.31
333.472	41.69
333.738	64.69
334.004	-107.31
334.27	-13.31
334.536	1.69
334.802	-36.31
335.068	-89.31
335.334	-1.31
335.6	19.69
335.866	-34.31
336.132	-171.31
336.398	-87.31
336.664	-23.31
336.93	-49.31
337.196	-81.31
337.462	-9.31
337.728	35.69
337.994	-32.31
338.26	-90.31
338.526	-20.31
338.792	-28.31
339.058	-38.31
339.324	-128.31
339.59	-5.31
339.856	55.69
340.121	-43.31
340.387	-125.31
340.653	75.69
340.919	137.69
341.185	53.69
341.45	-80.31
341.716	25.69
341.982	113.69
342.248	-43.31
342.514	-73.31
342.779	-1.31
343.045	32.69
343.311	6.69
343.576	-85.31
343.842	-41.31
344.108	123.69
344.374	23.69
344.639	-107.31
344.905	-87.31
345.171	43.69
345.436	-74.31
345.702	-98.31
345.967	52.69
346.233	92.69
346.499	20.69
346.764	-159.31
347.03	-69.31
347.295	-30.31
347.561	-4.31
347.826	-44.31
348.092	-114.31
348.357	-16.31
348.623	-10.31
348.888	-110.31
349.154	-70.31
349.419	53.69
349.685	16.69
349.95	-79.31
350.216	-45.31
350.481	53.69
350.747	-38.31
351.012	-163.31
351.277	-103.31
351.543	33.69
351.808	-2.31
352.074	-148.31
352.339	-103.31
352.604	55.69
352.87	2.69
353.135	-114.31
353.4	-70.31
353.666	5.69
353.931	-8.31
354.196	-128.31
354.461	-113.31
354.727	48.69
354.992	26.69
355.257	-125.31
355.522	-21.31
355.788	23.69
356.053	93.69
356.318	-52.31
356.583	-75.31
356.848	133.69
357.113	235.69
357.379	-37.31
357.644	-50.31
357.909	125.69
358.174	136.69
358.439	-95.31
358.704	-21.31
358.969	102.69
359.234	113.69
359.499	-61.31
359.765	5.69
360.03	116.69
360.295	120.69
360.56	-44.31
360.825	6.69
361.09	209.69
361.355	41.69
361.62	12.69
361.885	33.69
362.15	20.69
362.415	47.69
362.679	-5.31
362.944	132.69
363.209	160.69
363.474	172.69
363.739	105.69
364.004	18.69
364.269	107.69
364.534	134.69
364.799	96.69
365.063	105.69
365.328	199.69
365.593	205.69
365.858	74.69
366.123	76.69
366.387	210.69
366.652	143.69
366.917	65.69
367.182	119.69
367.447	270.69
367.711	204.69
367.976	149.69
368.241	229.69
368.505	285.69
368.77	196.69
369.035	188.69
369.299	233.69
369.564	256.69
369.829	196.69
370.093	164.69
370.358	177.69
370.623	273.69
370.887	308.69
371.152	188.69
371.416	239.69
371.681	302.69
371.946	238.69
372.21	191.69
372.475	322.69
372.739	369.69
373.004	324.69
373.268	283.69
373.533	338.69
373.797	433.69
374.062	429.69
374.326	289.69
374.591	354.69
374.855	475.69
375.12	417.69
375.384	245.69
375.648	350.69
375.913	520.69
376.177	525.69
376.442	402.69
376.706	432.69
376.97	565.69
377.235	530.69
377.499	504.69
377.763	513.69
378.028	535.69
378.292	582.69
378.556	504.69
378.821	456.69
379.085	559.69
379.349	508.69
379.614	459.69
379.878	593.69
380.142	785.69
380.406	701.69
380.671	704.69
380.935	880.69
381.199	963.69
381.463	859.69
381.727	822.69
381.991	814.69
382.256	873.69
382.52	850.69
382.784	864.69
383.048	1005.69
383.312	941.69
383.576	915.69
383.84	848.69
384.104	919.69
384.369	1011.69
384.633	931.69
384.897	874.69
385.161	1000.69
385.425	1125.69
385.689	1048.69
385.953	1013.69
386.217	1006.69
386.481	1143.69
386.745	1191.69
387.009	1146.69
387.273	1116.69
387.537	1190.69
387.801	1264.69
388.064	1189.69
388.328	1282.69
388.592	1356.69
388.856	1316.69
389.12	1274.69
389.384	1345.69
389.648	1396.69
389.912	1447.69
390.176	1497.69
390.439	1622.69
390.703	1463.69
390.967	1472.69
391.231	1384.69
391.495	1443.69
391.758	1554.69
392.022	1585.69
392.286	1447.69
392.55	1500.69
392.813	1648.69
393.077	1701.69
393.341	1656.69
393.605	1755.69
393.868	1731.69
394.132	1704.69
394.396	1683.69
394.659	1838.69
394.923	1820.69
395.187	1730.69
395.45	1748.69
395.714	1832.69
395.978	1885.69
396.241	1876.69
396.505	1823.69
396.768	1890.69
397.032	1979.69
397.295	2000.69
397.559	1958.69
397.823	1910.69
398.086	2071.69
398.35	2048.69
398.613	1946.69
398.877	2044.69
399.14	2220.69
399.404	2289.69
399.667	2188.69
399.931	2128.69
400.194	2227.69
400.457	2213.69
400.721	2191.69
400.984	2328.69
401.248	2306.69
401.511	2262.69
401.775	2148.69
402.038	2236.69
402.301	2460.69
402.565	2445.69
402.828	2298.69
403.091	2371.69
403.355	2519.69
403.618	2507.69
403.881	2499.69
404.145	2528.69
404.408	2621.69
404.671	2551.69
404.934	2564.69
405.198	2653.69
405.461	2692.69
405.724	2715.69
405.987	2727.69
406.251	2762.69
406.514	2906.69
406.777	2774.69
407.04	2650.69
407.303	2646.69
407.567	2801.69
407.83	2869.69
408.093	2715.69
408.356	2844.69
408.619	2961.69
408.882	3021.69
409.145	2914.69
409.408	2852.69
409.672	2978.69
409.935	2955.69
410.198	2842.69
410.461	2921.69
410.724	3158.69
410.987	3094.69
411.25	2928.69
411.513	3025.69
411.776	3085.69
412.039	2957.69
412.302	2954.69
412.565	3027.69
412.828	3059.69
413.091	3081.69
413.354	3008.69
413.617	2972.69
413.879	3063.69
414.142	3063.69
414.405	2889.69
414.668	2973.69
414.931	3101.69
415.194	3047.69
415.457	2917.69
415.72	3004.69
415.983	3018.69
416.245	3057.69
416.508	2976.69
416.771	2909.69
417.034	3056.69
417.297	3053.69
417.559	3000.69
417.822	2969.69
418.085	3073.69
418.348	3096.69
418.61	2928.69
418.873	2948.69
419.136	2996.69
419.399	2983.69
419.661	3049.69
419.924	3001.69
420.187	3079.69
420.449	3063.69
420.712	3025.69
420.975	3011.69
421.237	3136.69
421.5	3163.69
421.762	3179.69
422.025	3170.69
422.288	3275.69
422.55	3140.69
422.813	3035.69
423.075	3127.69
423.338	3210.69
423.601	3261.69
423.863	3236.69
424.126	3274.69
424.388	3323.69
424.651	3296.69
424.913	3281.69
425.176	3300.69
425.438	3331.69
425.701	3336.69
425.963	3223.69
426.225	3251.69
426.488	3317.69
426.75	3311.69
427.013	3321.69
427.275	3404.69
427.538	3419.69
427.8	3434.69
428.062	3342.69
428.325	3387.69
428.587	3442.69
428.849	3441.69
429.112	3430.69
429.374	3378.69
429.636	3451.69
429.899	3555.69
430.161	3438.69
430.423	3510.69
430.686	3691.69
430.948	3655.69
431.21	3455.69
431.472	3410.69
431.735	3552.69
431.997	3602.69
432.259	3555.69
432.521	3459.69
432.783	3608.69
433.046	3610.69
433.308	3477.69
433.57	3534.69
433.832	3773.69
434.094	3578.69
434.356	3458.69
434.618	3601.69
434.881	3666.69
435.143	3699.69
435.405	3723.69
435.667	3657.69
435.929	3700.69
436.191	3712.69
436.453	3608.69
436.715	3727.69
436.977	3878.69
437.239	3915.69
437.501	3786.69
437.763	3769.69
438.025	3873.69
438.287	3865.69
438.549	3804.69
438.811	3779.69
439.073	3806.69
439.335	3823.69
439.597	3774.69
439.859	3787.69
440.121	3904.69
440.383	3779.69
440.645	3783.69
440.907	3846.69
441.168	3862.69
441.43	3813.69
441.692	3824.69
441.954	3898.69
442.216	3956.69
442.478	3904.69
442.74	3788.69
443.001	3915.69
443.263	4060.69
443.525	3928.69
443.787	3809.69
444.048	3781.69
444.31	3825.69
444.572	3898.69
444.834	3857.69
445.095	3845.69
445.357	4000.69
445.619	3844.69
445.881	3749.69
446.142	3861.69
446.404	3840.69
446.666	3879.69
446.927	3917.69
447.189	4043.69
447.451	4083.69
447.712	3890.69
447.974	3741.69
448.235	3821.69
448.497	3928.69
448.759	3852.69
449.02	3852.69
449.282	3782.69
449.543	3905.69
449.805	3973.69
450.066	3717.69
450.328	3826.69
450.59	4078.69
450.851	3892.69
451.113	3744.69
451.374	3717.69
451.636	3921.69
451.897	3984.69
452.158	3894.69
452.42	3920.69
452.681	3998.69
452.943	3851.69
453.204	3801.69
453.466	3807.69
453.727	3845.69
453.988	3890.69
454.25	3816.69
454.511	3863.69
454.773	3954.69
455.034	4114.69
455.295	3857.69
455.557	3970.69
455.818	3987.69
456.079	3910.69
456.341	4018.69
456.602	4089.69
456.863	4133.69
457.124	3988.69
457.386	3826.69
457.647	3810.69
457.908	3891.69
458.169	4084.69
458.431	3935.69
458.692	4001.69
458.953	4069.69
459.214	4040.69
459.476	4170.69
459.737	4274.69
459.998	4305.69
460.259	4165.69
460.52	4061.69
460.781	4203.69
461.043	4362.69
461.304	4233.69
461.565	4041.69
461.826	4095.69
462.087	4338.69
462.348	4447.69
462.609	4437.69
462.87	4414.69
463.131	4343.69
463.392	4524.69
463.653	4530.69
463.914	4531.69
464.175	4524.69
464.436	4561.69
464.697	4551.69
464.958	4426.69
465.219	4522.69
465.48	4596.69
465.741	4642.69
466.002	4524.69
466.263	4698.69
466.524	4716.69
466.785	4587.69
467.046	4687.69
467.307	4813.69
467.568	4838.69
467.829	4876.69
468.089	4887.69
468.35	4919.69
468.611	4840.69
468.872	4806.69
469.133	4993.69
469.394	5178.69
469.655	5258.69
469.915	5132.69
470.176	4974.69
470.437	5061.69
470.698	5231.69
470.958	5210.69
471.219	5242.69
471.48	5384.69
471.741	5507.69
472.001	5450.69
472.262	5462.69
472.523	5664.69
472.784	5775.69
473.044	5684.69
473.305	5696.69
473.566	5757.69
473.826	5852.69
474.087	5794.69
474.348	5877.69
474.608	6052.69
474.869	6036.69
475.129	5927.69
475.39	6013.69
475.651	6212.69
475.911	6339.69
476.172	6205.69
476.432	6326.69
476.693	6551.69
476.953	6389.69
477.214	6455.69
477.475	6529.69
477.735	6512.69
477.996	6681.69
478.256	6538.69
478.517	6656.69
478.777	6808.69
479.038	6936.69
479.298	6994.69
479.558	6991.69
479.819	7072.69
480.079	7064.69
480.34	7147.69
480.6	7132.69
480.861	7256.69
481.121	7325.69
481.381	7285.69
481.642	7370.69
481.902	7449.69
482.162	7445.69
482.423	7384.69
482.683	7519.69
482.943	7660.69
483.204	7636.69
483.464	7625.69
483.724	7609.69
483.985	7708.69
484.245	7779.69
484.505	7761.69
484.765	7838.69
485.026	7877.69
485.286	8016.69
485.546	8018.69
485.806	8011.69
486.067	8075.69
486.327	8063.69
486.587	7991.69
486.847	8033.69
487.107	8228.69
487.368	8304.69
487.628	8232.69
487.888	8281.69
488.148	8404.69
488.408	8284.69
488.668	8351.69
488.928	8372.69
489.188	8399.69
489.449	8455.69
489.709	8370.69
489.969	8405.69
490.229	8568.69
490.489	8562.69
490.749	8465.69
491.009	8420.69
491.269	8519.69
491.529	8508.69
491.789	8538.69
492.049	8642.69
492.309	8791.69
492.569	8661.69
492.829	8643.69
493.089	8655.69
493.349	8816.69
493.609	8678.69
493.869	8587.69
494.129	8749.69
494.389	8839.69
494.648	8698.69
494.908	8641.69
495.168	8708.69
495.428	8818.69
495.688	8800.69
495.948	8682.69
496.208	8647.69
496.467	8724.69
496.727	8746.69
496.987	8751.69
497.247	8805.69
497.507	8858.69
497.767	8913.69
498.026	8686.69
498.286	8830.69
498.546	8994.69
498.806	8852.69
499.065	8937.69
499.325	8821.69
499.585	8827.69
499.845	8831.69
500.104	8800.69
500.364	8924.69
500.624	8921.69
500.883	8849.69
501.143	8850.69
501.403	8899.69
501.662	9030.69
501.922	9000.69
502.182	8795.69
502.441	8729.69
502.701	8793.69
502.96	8977.69
503.22	8919.69
503.48	8847.69
503.739	8926.69
503.999	8820.69
504.258	8748.69
504.518	8836.69
504.777	8989.69
505.037	8944.69
505.296	8773.69
505.556	8827.69
505.815	8966.69
506.075	9121.69
506.334	8973.69
506.594	8785.69
506.853	8861.69
507.113	8825.69
507.372	8685.69
507.632	8794.69
507.891	8878.69
508.151	8936.69
508.41	8773.69
508.669	8834.69
508.929	8957.69
509.188	8881.69
509.447	8865.69
509.707	8797.69
509.966	8879.69
510.226	8955.69
510.485	8914.69
510.744	8922.69
511.004	8941.69
511.263	8820.69
511.522	8758.69
511.781	8743.69
512.041	8880.69
512.3	8902.69
512.559	8903.69
512.818	8979.69
513.078	8944.69
513.337	8902.69
513.596	8792.69
513.855	8825.69
514.115	8931.69
514.374	8901.69
514.633	8823.69
514.892	8798.69
515.151	8978.69
515.41	9064.69
515.67	8916.69
515.929	8877.69
516.188	8957.69
516.447	8886.69
516.706	8815.69
516.965	8916.69
517.224	8973.69
517.483	8962.69
517.743	8851.69
518.002	8952.69
518.261	9058.69
518.52	9016.69
518.779	8874.69
519.038	8881.69
519.297	8882.69
519.556	8921.69
519.815	8829.69
520.074	8865.69
520.333	8983.69
520.592	8982.69
520.851	8837.69
521.11	8928.69
521.369	9058.69
521.628	8942.69
521.887	8863.69
522.145	8916.69
522.404	8909.69
522.663	8942.69
522.922	8789.69
523.181	8871.69
523.44	8968.69
523.699	8970.69
523.958	8818.69
524.217	8780.69
524.475	8842.69
524.734	8878.69
524.993	8836.69
525.252	8862.69
525.511	8910.69
525.769	8917.69
526.028	8828.69
526.287	8869.69
526.546	8933.69
526.805	8906.69
527.063	8792.69
527.322	8703.69
527.581	8837.69
527.839	8814.69
528.098	8809.69
528.357	8823.69
528.616	8834.69
528.874	8837.69
529.133	8777.69
529.392	8843.69
529.65	8832.69
529.909	8797.69
530.168	8705.69
530.426	8731.69
530.685	8906.69
530.943	8880.69
531.202	8695.69
531.461	8705.69
531.719	8869.69
531.978	8785.69
532.236	8714.69
532.495	8802.69
532.753	8872.69
533.012	8782.69
533.271	8637.69
533.529	8629.69
533.788	8803.69
534.046	8763.69
534.305	8735.69
534.563	8888.69
534.822	8958.69
535.08	8893.69
535.338	8755.69
535.597	8821.69
535.855	8841.69
536.114	8775.69
536.372	8748.69
536.631	8840.69
536.889	8866.69
537.147	8857.69
537.406	8669.69
537.664	8808.69
537.923	8877.69
538.181	8884.69
538.439	8776.69
538.698	8869.69
538.956	8846.69
539.214	8805.69
539.473	8781.69
539.731	8912.69
539.989	9042.69
540.248	8940.69
540.506	8866.69
540.764	8862.69
541.022	8981.69
541.281	9057.69
541.539	8940.69
541.797	8894.69
542.055	9044.69
542.314	9114.69
542.572	9096.69
542.83	8998.69
543.088	9114.69
543.346	9128.69
543.604	9043.69
543.863	9123.69
544.121	9259.69
544.379	9180.69
544.637	9044.69
544.895	9224.69
545.153	9436.69
545.411	9273.69
545.67	9103.69
545.928	9217.69
546.186	9364.69
546.444	9467.69
546.702	9369.69
546.96	9430.69
547.218	9501.69
547.476	9474.69
547.734	9413.69
547.992	9487.69
548.25	9644.69
548.508	9531.69
548.766	9503.69
549.024	9568.69
549.282	9639.69
549.54	9699.69
549.798	9652.69
550.056	9720.69
550.314	9864.69
550.572	9853.69
550.83	9801.69
551.088	9895.69
551.346	9933.69
551.603	10013.69
551.861	9955.69
552.119	9998.69
552.377	10092.69
552.635	10013.69
552.893	9910.69
553.151	9947.69
553.409	10100.69
553.666	10185.69
553.924	10128.69
554.182	10138.69
554.44	10312.69
554.698	10407.69
554.955	10288.69
555.213	10296.69
555.471	10457.69
555.729	10452.69
555.986	10300.69
556.244	10313.69
556.502	10584.69
556.76	10516.69
557.017	10459.69
557.275	10463.69
557.533	10624.69
557.79	10626.69
558.048	10528.69
558.306	10623.69
558.563	10689.69
558.821	10580.69
559.079	10575.69
559.336	10687.69
559.594	10683.69
559.852	10592.69
560.109	10546.69
560.367	10698.69
560.624	10756.69
560.882	10719.69
561.14	10752.69
561.397	10799.69
561.655	10722.69
561.912	10783.69
562.17	10736.69
562.427	10851.69
562.685	10855.69
562.942	10811.69
563.2	10736.69
563.457	10764.69
563.715	10800.69
563.972	10870.69
564.23	10707.69
564.487	10692.69
564.745	10812.69
565.002	10792.69
565.26	10757.69
565.517	10757.69
565.774	10809.69
566.032	10799.69
566.289	10712.69
566.547	10769.69
566.804	10804.69
567.061	10741.69
567.319	10738.69
567.576	10846.69
567.833	10933.69
568.091	10929.69
568.348	10805.69
568.605	10766.69
568.863	10826.69
569.12	10811.69
569.377	10734.69
569.635	10658.69
569.892	10684.69
570.149	10613.69
570.406	10544.69
570.664	10555.69
570.921	10663.69
571.178	10564.69
571.435	10509.69
571.693	10492.69
571.95	10553.69
572.207	10437.69
572.464	10357.69
572.721	10440.69
572.979	10532.69
573.236	10472.69
573.493	10390.69
573.75	10346.69
574.007	10406.69
574.264	10292.69
574.521	10209.69
574.779	10165.69
575.036	10181.69
575.293	10169.69
575.55	10114.69
575.807	10074.69
576.064	10093.69
576.321	10053.69
576.578	9915.69
576.835	9898.69
577.092	10041.69
577.349	9921.69
577.606	9677.69
577.863	9708.69
578.12	9799.69
578.377	9755.69
578.634	9484.69
578.891	9522.69
579.148	9547.69
579.405	9460.69
579.662	9346.69
579.919	9333.69
580.176	9344.69
580.433	9335.69
580.69	9222.69
580.947	9229.69
581.204	9261.69
581.461	9064.69
581.717	8986.69
581.974	9131.69
582.231	9064.69
582.488	8892.69
582.745	8671.69
583.002	8695.69
583.259	8821.69
583.515	8802.69
583.772	8632.69
584.029	8661.69
584.286	8700.69
584.543	8473.69
584.799	8480.69
585.056	8527.69
585.313	8535.69
585.57	8472.69
585.826	8256.69
586.083	8312.69
586.34	8449.69
586.597	8263.69
586.853	8044.69
587.11	8067.69
587.367	8228.69
587.623	8199.69
587.88	8053.69
588.137	7917.69
588.393	8020.69
588.65	7890.69
588.907	7778.69
589.163	7763.69
589.42	7805.69
589.677	7791.69
589.933	7591.69
590.19	7634.69
590.446	7786.69
590.703	7751.69
590.96	7541.69
591.216	7507.69
591.473	7549.69
591.729	7543.69
591.986	7497.69
592.242	7517.69
592.499	7673.69
592.755	7507.69
593.012	7348.69
593.268	7387.69
593.525	7336.69
593.781	7366.69
594.038	7261.69
594.294	7288.69
594.551	7283.69
594.807	7236.69
595.064	7205.69
595.32	7250.69
595.576	7333.69
595.833	7305.69
596.089	7150.69
596.346	7221.69
596.602	7254.69
596.858	7283.69
597.115	7119.69
597.371	7184.69
597.628	7225.69
597.884	7146.69
598.14	7053.69
598.397	7186.69
598.653	7290.69
598.909	7120.69
599.166	6923.69
599.422	6976.69
599.678	7081.69
599.934	7065.69
600.191	6949.69
600.447	7016.69
600.703	7043.69
600.959	6941.69
601.216	6764.69
601.472	6828.69
601.728	6915.69
601.984	6840.69
602.241	6786.69
602.497	6907.69
602.753	7024.69
603.009	6895.69
603.265	6795.69
603.521	6923.69
603.778	7080.69
604.034	6875.69
604.29	6766.69
604.546	6877.69
604.802	6958.69
605.058	6842.69
605.314	6769.69
605.571	6866.69
605.827	6916.69
606.083	6854.69
606.339	6762.69
606.595	6875.69
606.851	6948.69
607.107	6963.69
607.363	6751.69
607.619	6738.69
607.875	6914.69
608.131	6913.69
608.387	6666.69
608.643	6719.69
608.899	6827.69
609.155	6801.69
609.411	6759.69
609.667	6792.69
609.923	6752.69
610.179	6719.69
610.435	6593.69
610.691	6619.69
610.947	6756.69
611.203	6675.69
611.459	6627.69
611.714	6642.69
611.97	6802.69
612.226	6729.69
612.482	6540.69
612.738	6651.69
612.994	6851.69
613.25	6663.69
613.505	6483.69
613.761	6516.69
614.017	6612.69
614.273	6605.69
614.529	6544.69
614.785	6503.69
615.04	6559.69
615.296	6562.69
615.552	6504.69
615.808	6548.69
616.063	6592.69
616.319	6556.69
616.575	6422.69
616.831	6469.69
617.086	6611.69
617.342	6584.69
617.598	6406.69
617.854	6438.69
618.109	6521.69
618.365	6388.69
618.621	6292.69
618.876	6372.69
619.132	6460.69
619.388	6347.69
619.643	6234.69
619.899	6285.69
620.155	6368.69
620.41	6368.69
620.666	6239.69
620.921	6289.69
621.177	6425.69
621.433	6366.69
621.688	6244.69
621.944	6162.69
622.199	6201.69
622.455	6213.69
622.71	6097.69
622.966	6133.69
623.221	6117.69
623.477	6086.69
623.732	6083.69
623.988	6009.69
624.243	6144.69
624.499	6167.69
624.754	5941.69
625.01	5955.69
625.265	6076.69
625.521	6112.69
625.776	5950.69
626.032	5944.69
626.287	5985.69
626.543	5917.69
626.798	5870.69
627.053	5875.69
627.309	5980.69
627.564	5849.69
627.82	5822.69
628.075	5889.69
628.33	5837.69
628.586	5744.69
628.841	5664.69
629.096	5782.69
629.352	5834.69
629.607	5688.69
629.862	5633.69
630.118	5698.69
630.373	5635.69
630.628	5688.69
630.884	5551.69
631.139	5574.69
631.394	5752.69
631.649	5657.69
631.905	5542.69
632.16	5606.69
632.415	5721.69
632.67	5571.69
632.926	5416.69
633.181	5394.69
633.436	5528.69
633.691	5419.69
633.946	5311.69
634.202	5335.69
634.457	5435.69
634.712	5368.69
634.967	5252.69
635.222	5197.69
635.477	5313.69
635.733	5314.69
635.988	5190.69
636.243	5184.69
636.498	5302.69
636.753	5274.69
637.008	5076.69
637.263	5156.69
637.518	5261.69
637.773	5236.69
638.028	5181.69
638.283	5140.69
638.539	5191.69
638.794	5173.69
639.049	5025.69
639.304	5011.69
639.559	4994.69
639.814	4982.69
640.069	4932.69
640.324	4920.69
640.579	5030.69
640.834	4985.69
641.089	4857.69
641.344	4917.69
641.598	5130.69
641.853	5001.69
642.108	4807.69
642.363	4733.69
642.618	4908.69
642.873	4857.69
643.128	4745.69
643.383	4755.69
643.638	4810.69
643.893	4871.69
644.148	4797.69
644.402	4696.69
644.657	4762.69
644.912	4693.69
645.167	4651.69
645.422	4697.69
645.677	4657.69
645.931	4674.69
646.186	4633.69
646.441	4557.69
646.696	4598.69
646.951	4617.69
647.205	4558.69
647.46	4563.69
647.715	4595.69
647.97	4716.69
648.224	4759.69
648.479	4617.69
648.734	4693.69
648.989	4651.69
649.243	4531.69
649.498	4470.69
649.753	4516.69
650.007	4578.69
650.262	4489.69
650.517	4442.69
650.771	4488.69
651.026	4454.69
651.281	4286.69
651.535	4396.69
651.79	4468.69
652.045	4460.69
652.299	4340.69
652.554	4345.69
652.809	4465.69
653.063	4556.69
653.318	4426.69
653.572	4310.69
653.827	4466.69
654.081	4365.69
654.336	4261.69
654.591	4271.69
654.845	4360.69
655.1	4321.69
655.354	4245.69
655.609	4286.69
655.863	4402.69
656.118	4403.69
656.372	4243.69
656.627	4266.69
656.881	4368.69
657.136	4296.69
657.39	4156.69
657.645	4320.69
657.899	4470.69
658.153	4265.69
658.408	4124.69
658.662	4225.69
658.917	4307.69
659.171	4199.69
659.426	4102.69
659.68	4149.69
659.934	4251.69
660.189	4237.69
660.443	4127.69
660.697	4271.69
660.952	4370.69
661.206	4235.69
661.46	4060.69
661.715	4138.69
661.969	4260.69
662.223	4224.69
662.478	4113.69
662.732	4186.69
662.986	4230.69
663.241	4239.69
663.495	4150.69
663.749	4178.69
664.003	4311.69
664.258	4186.69
664.512	4118.69
664.766	4153.69
665.02	4226.69
665.275	4267.69
665.529	4107.69
665.783	4130.69
666.037	4240.69
666.291	4263.69
666.546	4160.69
666.8	4164.69
667.054	4167.69
667.308	4226.69
667.562	4089.69
667.816	4188.69
668.071	4318.69
668.325	4193.69
668.579	4163.69
668.833	4241.69
669.087	4407.69
669.341	4271.69
669.595	4135.69
669.849	4207.69
670.103	4311.69
670.357	4316.69
670.612	4247.69
670.866	4236.69
671.12	4366.69
671.374	4315.69
671.628	4265.69
671.882	4263.69
672.136	4344.69
672.39	4335.69
672.644	4130.69
672.898	4299.69
673.152	4516.69
673.406	4434.69
673.66	4308.69
673.914	4362.69
674.168	4414.69
674.422	4335.69
674.675	4288.69
674.929	4344.69
675.183	4444.69
675.437	4374.69
675.691	4336.69
675.945	4434.69
676.199	4560.69
676.453	4423.69
676.707	4299.69
676.961	4301.69
677.214	4419.69
677.468	4485.69
677.722	4512.69
677.976	4482.69
678.23	4521.69
678.484	4556.69
678.737	4415.69
678.991	4431.69
679.245	4494.69
679.499	4505.69
679.753	4451.69
680.006	4506.69
680.26	4602.69
680.514	4613.69
680.768	4494.69
681.021	4560.69
681.275	4574.69
681.529	4605.69
681.783	4539.69
682.036	4573.69
682.29	4555.69
682.544	4582.69
682.797	4560.69
683.051	4540.69
683.305	4616.69
683.559	4621.69
683.812	4608.69
684.066	4603.69
684.32	4686.69
684.573	4688.69
684.827	4665.69
685.08	4689.69
685.334	4781.69
685.588	4704.69
685.841	4561.69
686.095	4760.69
686.348	4775.69
686.602	4757.69
686.856	4728.69
687.109	4707.69
687.363	4771.69
687.616	4714.69
687.87	4584.69
688.123	4660.69
688.377	4791.69
688.63	4822.69
688.884	4774.69
689.137	4866.69
689.391	4939.69
689.644	4762.69
689.898	4712.69
690.151	4741.69
690.405	4814.69
690.658	4764.69
690.912	4742.69
691.165	4761.69
691.419	4806.69
691.672	4812.69
691.926	4764.69
692.179	4752.69
692.432	4865.69
692.686	4837.69
692.939	4749.69
693.193	4803.69
693.446	4969.69
693.699	4894.69
693.953	4859.69
694.206	4859.69
694.459	4928.69
694.713	4981.69
694.966	4835.69
695.219	4842.69
695.473	4911.69
695.726	4824.69
695.979	4775.69
696.233	4829.69
696.486	4925.69
696.739	4889.69
696.992	4790.69
697.246	4927.69
697.499	5016.69
697.752	4860.69
698.006	4835.69
698.259	4915.69
698.512	4908.69
698.765	4857.69
699.018	4787.69
699.272	4848.69
699.525	4855.69
699.778	4812.69
700.031	4781.69
700.284	4793.69
700.538	4881.69
700.791	4843.69
701.044	4795.69
701.297	4861.69
701.55	4846.69
701.803	4822.69
702.056	4740.69
702.31	4797.69
702.563	4883.69
702.816	4781.69
703.069	4686.69
703.322	4788.69
703.575	4867.69
703.828	4897.69
704.081	4806.69
704.334	4771.69
704.587	4813.69
704.84	4815.69
705.093	4812.69
705.346	4889.69
705.599	4849.69
705.853	4872.69
706.106	4911.69
706.359	5141.69
706.612	4879.69
706.865	4902.69
707.118	4724.69
707.37	4767.69
707.623	4844.69
707.876	4804.69
708.129	4780.69
708.382	4853.69
708.635	4952.69
708.888	4784.69
709.141	4617.69
709.394	4773.69
709.647	4899.69
709.9	4768.69
710.153	4656.69
710.406	4742.69
710.658	4797.69
710.911	4758.69
711.164	4653.69
711.417	4636.69
711.67	4704.69
711.923	4743.69
712.176	4592.69
712.428	4621.69
712.681	4736.69
712.934	4745.69
713.187	4640.69
713.44	4558.69
713.692	4668.69
713.945	4592.69
714.198	4495.69
714.451	4473.69
714.704	4636.69
714.956	4678.69
715.209	4691.69
715.462	4615.69
715.715	4636.69
715.967	4595.69
716.22	4454.69
716.473	4503.69
716.725	4631.69
716.978	4580.69
717.231	4555.69
717.484	4578.69
717.736	4465.69
717.989	4428.69
718.242	4365.69
718.494	4505.69
718.747	4601.69
718.999	4507.69
719.252	4460.69
719.505	4476.69
719.757	4501.69
720.01	4449.69
720.263	4362.69
720.515	4377.69
720.768	4534.69
721.02	4472.69
721.273	4308.69
721.525	4258.69
721.778	4390.69
722.031	4476.69
722.283	4310.69
722.536	4264.69
722.788	4369.69
723.041	4302.69
723.293	4240.69
723.546	4233.69
723.798	4312.69
724.051	4384.69
724.303	4319.69
724.556	4329.69
724.808	4412.69
725.061	4326.69
725.313	4213.69
725.566	4191.69
725.818	4238.69
726.071	4214.69
726.323	4034.69
726.575	4131.69
726.828	4269.69
727.08	4254.69
727.333	4113.69
727.585	4129.69
727.837	4181.69
728.09	4175.69
728.342	4007.69
728.595	4066.69
728.847	4262.69
729.099	4019.69
729.352	4036.69
729.604	4041.69
729.856	4083.69
730.109	4040.69
730.361	3955.69
730.613	4048.69
730.866	4132.69
731.118	3971.69
731.37	3891.69
731.622	3907.69
731.875	4000.69
732.127	4040.69
732.379	3962.69
732.631	4064.69
732.884	4021.69
733.136	3924.69
733.388	3795.69
733.64	3865.69
733.893	3999.69
734.145	3920.69
734.397	3776.69
734.649	3792.69
734.901	3859.69
735.154	3780.69
735.406	3687.69
735.658	3747.69
735.91	3865.69
736.162	3791.69
736.414	3660.69
736.667	3782.69
736.919	3819.69
737.171	3707.69
737.423	3652.69
737.675	3700.69
737.927	3761.69
738.179	3711.69
738.431	3681.69
738.684	3613.69
738.936	3686.69
739.188	3731.69
739.44	3548.69
739.692	3535.69
739.944	3571.69
740.196	3544.69
740.448	3505.69
740.7	3534.69
740.952	3584.69
741.204	3575.69
741.456	3474.69
741.708	3496.69
741.96	3534.69
742.212	3613.69
742.464	3583.69
742.716	3435.69
742.968	3503.69
743.22	3427.69
743.472	3340.69
743.724	3455.69
743.976	3604.69
744.228	3586.69
744.48	3330.69
744.732	3363.69
744.983	3492.69
745.235	3471.69
745.487	3425.69
745.739	3470.69
745.991	3443.69
746.243	3482.69
746.495	3336.69
746.747	3357.69
746.999	3475.69
747.25	3432.69
747.502	3406.69
747.754	3480.69
748.006	3433.69
748.258	3552.69
748.51	3530.69
748.761	3354.69
749.013	3403.69
749.265	3435.69
749.517	3431.69
749.768	3479.69
750.02	3498.69
750.272	3409.69
750.524	3222.69
750.776	3225.69
751.027	3411.69
751.279	3408.69
751.531	3221.69
751.782	3310.69
752.034	3409.69
752.286	3281.69
752.538	3137.69
752.789	3221.69
753.041	3320.69
753.293	3258.69
753.544	3178.69
753.796	3205.69
754.048	3305.69
754.299	3274.69
754.551	3208.69
754.803	3178.69
755.054	3217.69
755.306	3267.69
755.558	3140.69
755.809	3167.69
756.061	3309.69
756.312	3182.69
756.564	3143.69
756.816	3180.69
757.067	3142.69
757.319	3108.69
757.57	3048.69
757.822	3135.69
758.073	3239.69
758.325	3170.69
758.577	3050.69
758.828	3055.69
759.08	3217.69
759.331	3171.69
759.583	2978.69
759.834	3065.69
760.086	3072.69
760.337	3026.69
760.589	3001.69
760.84	3005.69
761.092	3062.69
761.343	3012.69
761.595	2883.69
761.846	3010.69
762.097	3036.69
762.349	2989.69
762.6	2854.69
762.852	2979.69
763.103	3088.69
763.355	2938.69
763.606	2833.69
763.857	2967.69
764.109	3085.69
764.36	2976.69
764.612	2900.69
764.863	2975.69
765.114	3015.69
765.366	2879.69
765.617	2758.69
765.868	2810.69
766.12	2987.69
766.371	2988.69
766.622	2784.69
766.874	2828.69
767.125	2964.69
767.376	2841.69
767.628	2757.69
767.879	2834.69
768.13	2924.69
768.381	2908.69
768.633	2829.69
768.884	2833.69
769.135	2925.69
769.386	2865.69
769.638	2824.69
769.889	2846.69
770.14	2861.69
770.391	2714.69
770.643	2668.69
770.894	2676.69
771.145	2813.69
771.396	2735.69
771.647	2635.69
771.899	2749.69
772.15	2816.69
772.401	2764.69
772.652	2630.69
772.903	2658.69
773.154	2982.69
773.406	3202.69
773.657	2657.69
773.908	2643.69
774.159	2722.69
774.41	2703.69
774.661	2566.69
774.912	2609.69
775.163	2769.69
775.414	2793.69
775.666	2525.69
775.917	2541.69
776.168	2589.69
776.419	2559.69
776.67	2463.69
776.921	2502.69
777.172	2574.69
777.423	2612.69
777.674	2617.69
777.925	2607.69
778.176	2527.69
778.427	2508.69
778.678	2452.69
778.929	2491.69
779.18	2583.69
779.431	2503.69
779.682	2485.69
779.933	2523.69
780.184	2549.69
780.435	2516.69
780.686	2447.69
780.937	2538.69
781.188	2595.69
781.439	2662.69
781.69	2580.69
781.941	2519.69
782.191	2516.69
782.442	2498.69
782.693	2384.69
782.944	2368.69
783.195	2451.69
783.446	2486.69
783.697	2496.69
783.948	2389.69
784.199	2413.69
784.449	2378.69
784.7	2356.69
784.951	2405.69
785.202	2537.69
785.453	2475.69
785.704	2291.69
785.954	2289.69
786.205	2372.69
786.456	2322.69
786.707	2225.69
786.958	2259.69
787.208	2377.69
787.459	2320.69
787.71	2347.69
787.961	2330.69
788.211	2354.69
788.462	2321.69
788.713	2274.69
788.964	2256.69
789.214	2362.69
789.465	2356.69
789.716	2273.69
789.967	2272.69
790.217	2296.69
790.468	2262.69
790.719	2198.69
790.969	2241.69
791.22	2283.69
791.471	2339.69
791.721	2338.69
791.972	2232.69
792.223	2298.69
792.473	2223.69
792.724	2182.69
792.975	2221.69
793.225	2283.69
793.476	2215.69
793.726	2149.69
793.977	2257.69
794.228	2384.69
794.478	2260.69
794.729	2123.69
794.979	2228.69
795.23	2255.69
795.481	2183.69
795.731	2088.69
795.982	2164.69
796.232	2157.69
796.483	2130.69
796.733	2055.69
796.984	2127.69
797.234	2176.69
797.485	2181.69
797.735	2044.69
797.986	2093.69
798.236	2181.69
798.487	2106.69
798.737	2106.69
798.988	2168.69
799.238	2210.69
799.489	2128.69
799.739	2029.69
799.99	2084.69
800.24	2147.69
800.491	2202.69
800.741	2046.69
800.991	1987.69
801.242	2096.69
801.492	2085.69
801.743	2000.69
801.993	2241.69
802.244	2455.69
802.494	2096.69
802.744	2041.69
802.995	2047.69
803.245	2075.69
803.495	2043.69
803.746	1989.69
803.996	2045.69
804.246	2059.69
804.497	2092.69
804.747	1945.69
804.997	2011.69
805.248	2000.69
805.498	1933.69
805.748	1952.69
805.999	1858.69
806.249	1916.69
806.499	1933.69
806.75	1860.69
807	1882.69
807.25	1992.69
807.5	1916.69
807.751	1930.69
808.001	1982.69
808.251	2005.69
808.501	2062.69
808.752	2039.69
809.002	1936.69
809.252	1956.69
809.502	1904.69
809.752	1849.69
810.003	1804.69
810.253	1902.69
810.503	1932.69
810.753	1965.69
811.003	1970.69
811.254	1992.69
811.504	1915.69
811.754	1904.69
812.004	1878.69
812.254	2067.69
812.504	1913.69
812.754	1849.69
813.005	1905.69
813.255	1962.69
813.505	1902.69
813.755	1832.69
814.005	1893.69
814.255	1861.69
814.505	1825.69
814.755	1751.69
815.005	1764.69
815.255	1875.69
815.505	1812.69
815.756	1853.69
816.006	1843.69
816.256	1818.69
816.506	1761.69
816.756	1705.69
817.006	1770.69
817.256	1830.69
817.506	1830.69
817.756	1780.69
818.006	1779.69
818.256	1838.69
818.506	1829.69
818.756	1691.69
819.006	1733.69
819.256	1783.69
819.506	1738.69
819.756	1672.69
820.006	1760.69
820.255	1830.69
820.505	1801.69
820.755	1641.69
821.005	1699.69
821.255	1821.69
821.505	1775.69
821.755	1696.69
822.005	1765.69
822.255	1831.69
822.505	1743.69
822.755	1735.69
823.004	1634.69
823.254	1671.69
823.504	1749.69
823.754	1720.69
824.004	1655.69
824.254	1743.69
824.504	1735.69
824.753	1777.69
825.003	1779.69
825.253	1807.69
825.503	1670.69
825.753	1647.69
826.002	1724.69
826.252	1879.69
826.502	1703.69
826.752	1600.69
827.002	1619.69
827.251	1713.69
827.501	1672.69
827.751	1587.69
828.001	1624.69
828.25	1729.69
828.5	1563.69
828.75	1555.69
829	1635.69
829.249	1752.69
829.499	1584.69
829.749	1603.69
829.998	1659.69
830.248	1682.69
830.498	1580.69
830.748	1567.69
830.997	1639.69
831.247	1704.69
831.497	1707.69
831.746	1610.69
831.996	1670.69
832.246	1761.69
832.495	1773.69
832.745	1545.69
832.994	1556.69
833.244	1702.69
833.494	1594.69
833.743	1502.69
833.993	1569.69
834.243	1608.69
834.492	1561.69
834.742	1558.69
834.991	1580.69
835.241	1743.69
835.49	1580.69
835.74	1446.69
835.99	1516.69
836.239	1623.69
836.489	1641.69
836.738	1526.69
836.988	1449.69
837.237	1561.69
837.487	1650.69
837.736	1538.69
837.986	1489.69
838.235	1569.69
838.485	1549.69
838.734	1514.69
838.984	1572.69
839.233	1528.69
839.483	1440.69
839.732	1400.69
839.982	1469.69
840.231	1529.69
840.481	1535.69
840.73	1428.69
840.979	1507.69
841.229	1528.69
841.478	1477.69
841.728	1357.69
841.977	1362.69
842.227	1419.69
842.476	1375.69
842.725	1311.69
842.975	1362.69
843.224	1468.69
843.474	1526.69
843.723	1430.69
843.972	1384.69
844.222	1445.69
844.471	1513.69
844.72	1390.69
844.97	1389.69
845.219	1496.69
845.468	1468.69
845.718	1403.69
845.967	1436.69
846.216	1447.69
846.466	1458.69
846.715	1357.69
846.964	1375.69
847.214	1393.69
847.463	1338.69
847.712	1360.69
847.961	1348.69
848.211	1418.69
848.46	1405.69
848.709	1349.69
848.958	1285.69
849.208	1349.69
849.457	1359.69
849.706	1380.69
849.955	1352.69
850.205	1324.69
850.454	1454.69
850.703	1490.69
850.952	1389.69
851.201	1438.69
851.451	1377.69
851.7	1349.69
851.949	1247.69
852.198	1347.69
852.447	1304.69
852.696	1232.69
852.946	1319.69
853.195	1411.69
853.444	1391.69
853.693	1193.69
853.942	1204.69
854.191	1319.69
854.44	1327.69
854.689	1257.69
854.939	1206.69
855.188	1209.69
855.437	1245.69
855.686	1213.69
855.935	1238.69
856.184	1312.69
856.433	1343.69
856.682	1265.69
856.931	1261.69
857.18	1276.69
857.429	1191.69
857.678	1172.69
857.927	1222.69
858.176	1235.69
858.425	1177.69
858.674	1107.69
858.924	1184.69
859.173	1185.69
859.422	1220.69
859.671	1119.69
859.92	1177.69
860.169	1203.69
860.417	1258.69
860.666	1175.69
860.915	1124.69
861.164	1163.69
861.413	1109.69
861.662	1051.69
861.911	1103.69
862.16	1241.69
862.409	1199.69
862.658	1028.69
862.907	1078.69
863.156	1192.69
863.405	1211.69
863.654	1087.69
863.903	1039.69
864.151	1142.69
864.4	1141.69
864.649	1077.69
864.898	1110.69
865.147	1185.69
865.396	1216.69
865.645	1079.69
865.894	1086.69
866.142	1201.69
866.391	1121.69
866.64	1028.69
866.889	1114.69
867.138	1267.69
867.387	1162.69
867.635	1059.69
867.884	1102.69
868.133	1201.69
868.382	1127.69
868.631	1008.69
868.879	1023.69
869.128	1121.69
869.377	1100.69
869.626	1049.69
869.874	1037.69
870.123	1145.69
870.372	1126.69
870.621	990.69
870.869	1018.69
871.118	1124.69
871.367	1111.69
871.616	1007.69
871.864	1064.69
872.113	1105.69
872.362	1108.69
872.61	1038.69
872.859	1072.69
873.108	1130.69
873.357	1028.69
873.605	939.69
873.854	969.69
874.103	1015.69
874.351	988.69
874.6	965.69
874.848	991.69
875.097	1044.69
875.346	1071.69
875.594	941.69
875.843	1049.69
876.092	1187.69
876.34	1056.69
876.589	940.69
876.837	869.69
877.086	939.69
877.335	1028.69
877.583	979.69
877.832	993.69
878.08	1107.69
878.329	1007.69
878.578	923.69
878.826	948.69
879.075	1034.69
879.323	1021.69
879.572	924.69
879.82	1044.69
880.069	1017.69
880.317	1024.69
880.566	876.69
880.814	998.69
881.063	1103.69
881.311	1009.69
881.56	1003.69
881.808	907.69
882.057	983.69
882.305	931.69
882.554	933.69
882.802	881.69
883.051	939.69
883.299	935.69
883.548	875.69
883.796	965.69
884.045	960.69
884.293	915.69
884.541	777.69
884.79	759.69
885.038	867.69
885.287	879.69
885.535	899.69
885.783	913.69
886.032	865.69
886.28	862.69
886.529	812.69
886.777	855.69
887.025	981.69
887.274	862.69
887.522	813.69
887.77	848.69
888.019	843.69
888.267	808.69
888.516	729.69
888.764	768.69
889.012	866.69
889.261	842.69
889.509	777.69
889.757	799.69
890.005	827.69
890.254	794.69
890.502	799.69
890.75	987.69
890.999	990.69
891.247	899.69
891.495	875.69
891.743	827.69
891.992	966.69
892.24	879.69
892.488	772.69
892.737	788.69
892.985	867.69
893.233	841.69
893.481	777.69
893.729	759.69
893.978	939.69
894.226	963.69
894.474	783.69
894.722	751.69
894.97	790.69
895.219	752.69
895.467	780.69
895.715	835.69
895.963	825.69
896.211	762.69
896.46	691.69
896.708	818.69
896.956	882.69
897.204	906.69
897.452	824.69
897.7	760.69
897.948	854.69
898.197	801.69
898.445	726.69
898.693	735.69
898.941	786.69
899.189	786.69
899.437	741.69
899.685	831.69
899.933	758.69
900.181	751.69
900.43	690.69
900.678	710.69
900.926	772.69
901.174	734.69
901.422	682.69
901.67	700.69
901.918	783.69
902.166	732.69
902.414	590.69
902.662	650.69
902.91	788.69
903.158	755.69
903.406	670.69
903.654	688.69
903.902	737.69
904.15	696.69
904.398	611.69
904.646	707.69
904.894	770.69
905.142	758.69
905.39	720.69
905.638	656.69
905.886	670.69
906.134	663.69
906.382	687.69
906.63	649.69
906.878	735.69
907.126	699.69
907.374	631.69
907.622	645.69
907.869	760.69
908.117	714.69
908.365	644.69
908.613	628.69
908.861	657.69
909.109	596.69
909.357	563.69
909.605	645.69
909.853	739.69
910.1	669.69
910.348	499.69
910.596	556.69
910.844	706.69
911.092	720.69
911.34	600.69
911.588	649.69
911.835	713.69
912.083	673.69
912.331	650.69
912.579	677.69
912.827	827.69
913.075	705.69
913.322	547.69
913.57	564.69
913.818	711.69
914.066	656.69
914.313	559.69
914.561	628.69
914.809	666.69
915.057	614.69
915.305	588.69
915.552	591.69
915.8	690.69
916.048	603.69
916.296	512.69
916.543	603.69
916.791	729.69
917.039	656.69
917.286	519.69
917.534	547.69
917.782	665.69
918.03	580.69
918.277	468.69
918.525	487.69
918.773	598.69
919.02	583.69
919.268	537.69
919.516	567.69
919.763	554.69
920.011	550.69
920.259	469.69
920.506	568.69
920.754	679.69
921.002	640.69
921.249	588.69
921.497	543.69
921.745	598.69
921.992	596.69
922.24	431.69
922.487	577.69
922.735	749.69
922.983	661.69
923.23	558.69
923.478	512.69
923.725	613.69
923.973	603.69
924.221	548.69
924.468	606.69
924.716	617.69
924.963	585.69
925.211	501.69
925.458	561.69
925.706	664.69
925.953	700.69
926.201	505.69
926.448	468.69
926.696	593.69
926.944	564.69
927.191	481.69
927.439	487.69
927.686	527.69
927.934	539.69
928.181	421.69
928.429	417.69
928.676	507.69
928.923	456.69
929.171	409.69
929.418	541.69
929.666	594.69
929.913	584.69
930.161	392.69
930.408	421.69
930.656	514.69
930.903	545.69
931.151	395.69
931.398	449.69
931.645	564.69
931.893	470.69
932.14	446.69
932.388	466.69
932.635	586.69
932.882	639.69
933.13	522.69
933.377	423.69
933.625	516.69
933.872	420.69
934.119	364.69
934.367	442.69
934.614	416.69
934.861	384.69
935.109	398.69
935.356	457.69
935.603	500.69
935.851	430.69
936.098	392.69
936.345	491.69
936.593	509.69
936.84	454.69
937.087	318.69
937.335	398.69
937.582	458.69
937.829	465.69
938.077	441.69
938.324	405.69
938.571	468.69
938.818	412.69
939.066	373.69
939.313	359.69
939.56	479.69
939.807	480.69
940.055	360.69
940.302	406.69
940.549	569.69
940.796	480.69
941.044	421.69
941.291	413.69
941.538	552.69
941.785	435.69
942.033	398.69
942.28	477.69
942.527	493.69
942.774	451.69
943.021	325.69
943.269	346.69
943.516	452.69
943.763	464.69
944.01	403.69
944.257	469.69
944.504	525.69
944.752	475.69
944.999	420.69
945.246	351.69
945.493	426.69
945.74	420.69
945.987	351.69
946.234	403.69
946.482	495.69
946.729	408.69
946.976	341.69
947.223	362.69
947.47	502.69
947.717	458.69
947.964	487.69
948.211	443.69
948.458	506.69
948.705	416.69
948.952	314.69
949.2	381.69
949.447	511.69
949.694	486.69
949.941	356.69
950.188	346.69
950.435	359.69
950.682	376.69
950.929	265.69
951.176	312.69
951.423	471.69
951.67	451.69
951.917	393.69
952.164	395.69
952.411	460.69
952.658	500.69
952.905	345.69
953.152	292.69
953.399	419.69
953.646	403.69
953.893	280.69
954.14	333.69
954.387	380.69
954.634	386.69
954.881	321.69
955.128	369.69
955.375	354.69
955.622	347.69
955.869	345.69
956.115	315.69
956.362	407.69
956.609	381.69
956.856	302.69
957.103	311.69
957.35	423.69
957.597	432.69
957.844	337.69
958.091	310.69
958.338	410.69
958.585	352.69
958.831	193.69
959.078	277.69
959.325	416.69
959.572	307.69
959.819	228.69
960.066	203.69
960.313	332.69
960.559	324.69
960.806	187.69
961.053	213.69
961.3	377.69
961.547	393.69
961.794	197.69
962.04	351.69
962.287	391.69
962.534	260.69
962.781	229.69
963.028	319.69
963.274	423.69
963.521	320.69
963.768	246.69
964.015	296.69
964.262	439.69
964.508	303.69
964.755	212.69
965.002	218.69
965.249	276.69
965.495	209.69
965.742	190.69
965.989	214.69
966.236	332.69
966.482	258.69
966.729	204.69
966.976	188.69
967.222	257.69
967.469	263.69
967.716	196.69
967.963	204.69
968.209	292.69
968.456	247.69
968.703	142.69
968.949	243.69
969.196	401.69
969.443	374.69
969.689	179.69
969.936	158.69
970.183	271.69
970.429	204.69
970.676	177.69
970.923	255.69
971.169	290.69
971.416	219.69
971.663	211.69
971.909	250.69
972.156	289.69
972.402	286.69
972.649	236.69
972.896	255.69
973.142	272.69
973.389	279.69
973.635	184.69
973.882	290.69
974.129	357.69
974.375	240.69
974.622	148.69
974.868	161.69
975.115	233.69
975.361	208.69
975.608	147.69
975.855	265.69
976.101	316.69
976.348	232.69
976.594	164.69
976.841	223.69
977.087	238.69
977.334	271.69
977.58	128.69
977.827	130.69
978.073	281.69
978.32	239.69
978.566	107.69
978.813	196.69
979.059	229.69
979.306	205.69
979.552	106.69
979.799	180.69
980.045	192.69
980.292	185.69
980.538	121.69
980.785	123.69
981.031	165.69
981.278	124.69
981.524	74.69
981.771	224.69
982.017	347.69
982.263	277.69
982.51	133.69
982.756	191.69
983.003	253.69
983.249	206.69
983.495	115.69
983.742	99.69
983.988	185.69
984.235	200.69
984.481	85.69
984.727	103.69
984.974	221.69
985.22	235.69
985.467	168.69
985.713	168.69
985.959	273.69
986.206	249.69
986.452	153.69
986.698	175.69
986.945	197.69
987.191	255.69
987.437	261.69
987.684	200.69
987.93	354.69
988.176	266.69
988.423	87.69
988.669	157.69
988.915	320.69
989.162	169.69
989.408	58.69
989.654	133.69
989.901	182.69
990.147	184.69
990.393	192.69
990.639	224.69
990.886	229.69
991.132	291.69
991.378	239.69
991.625	358.69
991.871	309.69
992.117	233.69
992.363	170.69
992.61	194.69
992.856	310.69
993.102	181.69
993.348	119.69
993.594	137.69
993.841	169.69
994.087	281.69
994.333	156.69
994.579	148.69
994.826	190.69
995.072	208.69
995.318	16.69
995.564	66.69
995.81	204.69
996.057	166.69
996.303	59.69
996.549	73.69
996.795	168.69
997.041	152.69
997.287	113.69
997.534	114.69
997.78	168.69
998.026	181.69
998.272	78.69
998.518	61.69
998.764	214.69
999.01	243.69
999.256	138.69
999.503	96.69
999.749	112.69
999.995	77.69
1000.241	53.69
1000.487	143.69
1000.733	181.69
1000.979	136.69
1001.225	95.69
1001.471	131.69
1001.718	192.69
1001.964	243.69
1002.21	94.69
1002.456	119.69
1002.702	263.69
1002.948	170.69
1003.194	110.69
1003.44	71.69
1003.686	135.69
1003.932	96.69
1004.178	60.69
1004.424	138.69
1004.67	261.69
1004.916	229.69
1005.162	114.69
1005.408	74.69
1005.654	207.69
1005.9	60.69
1006.146	-8.31
1006.392	71.69
1006.638	168.69
1006.884	119.69
1007.13	49.69
1007.376	31.69
1007.622	206.69
1007.868	237.69
1008.114	91.69
1008.36	155.69
1008.606	192.69
1008.852	186.69
1009.098	119.69
1009.344	163.69
1009.59	154.69
1009.836	36.69
1010.082	-43.31
1010.328	54.69
1010.574	140.69
1010.82	48.69
1011.065	-34.31
1011.311	-0.31
1011.557	128.69
1011.803	73.69
1012.049	18.69
1012.295	83.69
1012.541	121.69
1012.787	119.69
1013.033	-34.31
1013.278	-38.31
1013.524	105.69
1013.77	177.69
1014.016	59.69
1014.262	75.69
1014.508	187.69
1014.754	13.69
1015	-9.31
1015.245	140.69
1015.491	161.69
1015.737	150.69
1015.983	-2.31
1016.229	-45.31
1016.475	81.69
1016.72	227.69
1016.966	228.69
1017.212	123.69
1017.458	195.69
1017.704	96.69
1017.949	-30.31
1018.195	146.69
1018.441	257.69
1018.687	184.69
1018.933	18.69
1019.178	10.69
1019.424	172.69
1019.67	189.69
1019.916	-2.31
1020.161	32.69
1020.407	99.69
1020.653	64.69
1020.899	-23.31
1021.144	37.69
1021.39	145.69
1021.636	20.69
1021.882	-75.31
1022.127	52.69
1022.373	211.69
1022.619	143.69
1022.865	28.69
1023.11	49.69
1023.356	171.69
1023.602	101.69
1023.847	35.69
1024.093	91.69
1024.339	52.69
1024.584	26.69
1024.83	4.69
1025.076	29.69
1025.321	155.69
1025.567	116.69
1025.813	4.69
1026.058	81.69
1026.304	143.69
1026.55	67.69
1026.795	23.69
1027.041	38.69
1027.287	98.69
1027.532	112.69
1027.778	83.69
1028.024	37.69
1028.269	79.69
1028.515	4.69
1028.76	-36.31
1029.006	31.69
1029.252	135.69
1029.497	40.69
1029.743	17.69
1029.989	-22.31
1030.234	119.69
1030.48	192.69
1030.725	-2.31
1030.971	42.69
1031.216	160.69
1031.462	64.69
1031.708	-82.31
1031.953	-40.31
1032.199	75.69
1032.444	72.69
1032.69	1.69
1032.935	14.69
1033.181	142.69
1033.426	32.69
1033.672	-116.31
1033.918	-68.31
1034.163	42.69
1034.409	32.69
1034.654	-19.31
1034.9	104.69
1035.145	134.69
1035.391	45.69
1035.636	-69.31
1035.882	20.69
1036.127	14.69
1036.373	-15.31
1036.618	-119.31
1036.864	-11.31
1037.109	121.69
1037.355	25.69
1037.6	-54.31
1037.845	-18.31
1038.091	172.69
1038.336	139.69
1038.582	136.69
1038.827	225.69
1039.073	88.69
1039.318	-3.31
1039.564	-108.31
1039.809	-34.31
1040.055	131.69
1040.3	122.69
1040.545	-25.31
1040.791	-25.31
1041.036	33.69
1041.282	61.69
1041.527	110.69
1041.772	-58.31
1042.018	8.69
1042.263	38.69
1042.509	-104.31
1042.754	-73.31
1042.999	48.69
1043.245	33.69
1043.49	-131.31
1043.736	-47.31
1043.981	47.69
1044.226	53.69
1044.472	21.69
1044.717	18.69
1044.962	136.69
1045.208	60.69
1045.453	-175.31
1045.698	-104.31
1045.944	111.69
1046.189	53.69
1046.434	-55.31
1046.68	-17.31
1046.925	148.69
1047.17	-16.31
1047.416	-179.31
1047.661	-85.31
1047.906	65.69
1048.152	59.69
1048.397	-33.31
1048.642	-34.31
1048.887	138.69
1049.133	131.69
1049.378	-30.31
1049.623	-48.31
1049.869	60.69
1050.114	-0.31
1050.359	-74.31
1050.604	-6.31
1050.85	138.69
1051.095	15.69
1051.34	-60.31
1051.585	0.69
1051.831	169.69
1052.076	27.69
1052.321	-170.31
1052.566	-78.31
1052.812	121.69
1053.057	25.69
1053.302	-61.31
1053.547	35.69
1053.792	89.69
1054.038	76.69
1054.283	-114.31
1054.528	-31.31
1054.773	42.69
1055.018	23.69
1055.264	-97.31
1055.509	-115.31
1055.754	23.69
1055.999	-29.31
1056.244	-104.31
1056.49	-52.31
1056.735	37.69
1056.98	-6.31
1057.225	-124.31
1057.47	69.69
1057.715	2.69
1057.96	-94.31
1058.206	-138.31
1058.451	-31.31
1058.696	93.69
1058.941	52.69
1059.186	-126.31
1059.431	-100.31
1059.676	111.69
1059.922	33.69
1060.167	101.69
1060.412	273.69
1060.657	82.69
1060.902	3.69
1061.147	-160.31
1061.392	-80.31
1061.637	69.69
1061.882	-11.31
1062.127	-172.31
1062.373	-149.31
1062.618	109.69
1062.863	135.69
1063.108	-67.31
1063.353	-116.31
1063.598	-19.31
1063.843	-43.31
1064.088	-115.31
1064.333	-112.31
1064.578	42.69
1064.823	56.69
1065.068	-184.31
1065.313	-113.31
1065.558	52.69
1065.803	58.69
1066.048	-142.31
1066.293	-140.31
1066.538	78.69
1066.783	8.69
1067.028	-169.31
1067.273	-148.31
1067.518	37.69
1067.763	-8.31
1068.008	-167.31
1068.253	-109.31
1068.498	67.69
1068.743	7.69
1068.988	-142.31
1069.233	-133.31
1069.478	67.69
1069.723	123.69
1069.968	-71.31
1070.213	-19.31
1070.458	83.69
1070.703	-15.31
1070.948	-186.31
1071.193	-76.31
1071.438	57.69
1071.683	93.69
1071.928	-39.31
1072.173	-58.31
1072.418	1.69
1072.663	-29.31
1072.908	-156.31
1073.152	-78.31
1073.397	81.69
1073.642	-30.31
1073.887	-72.31
1074.132	34.69
1074.377	11.69
1074.622	-10.31
1074.867	-132.31
1075.112	-53.31
1075.357	134.69
1075.601	-8.31
1075.846	-60.31
1076.091	32.69
1076.336	71.69
1076.581	-71.31
1076.826	-171.31
1077.071	-75.31
1077.315	167.69
1077.56	100.69
1077.805	-123.31
1078.05	-80.31
1078.295	-10.31
1078.54	-40.31
1078.785	-166.31
1079.029	-115.31
1079.274	52.69
1079.519	-80.31
1079.764	-169.31
1080.009	-44.31
1080.253	42.69
1080.498	-60.31
1080.743	-200.31
1080.988	-60.31
1081.233	138.69
1081.478	75.69
1081.722	-115.31
1081.967	-22.31
1082.212	133.69
1082.457	27.69
1082.701	-114.31
1082.946	-99.31
1083.191	39.69
1083.436	-59.31
1083.681	-208.31
1083.925	-103.31
1084.17	1.69
1084.415	20.69
1084.66	-181.31
1084.904	-79.31
1085.149	15.69
1085.394	-23.31
1085.639	-195.31
1085.883	-89.31
1086.128	146.69
1086.373	156.69
1086.617	-60.31
1086.862	-123.31
1087.107	-11.31
1087.352	-73.31
1087.596	-154.31
1087.841	-26.31
1088.086	38.69
1088.33	7.69
1088.575	-232.31
1088.82	-86.31
1089.064	79.69
1089.309	-79.31
1089.554	-194.31
1089.798	-151.31
1090.043	51.69
1090.288	-14.31
1090.533	-184.31
1090.777	-103.31
1091.022	36.69
1091.266	51.69
1091.511	-118.31
1091.756	-40.31
1092	115.69
1092.245	84.69
1092.49	-150.31
1092.734	-90.31
1092.979	95.69
1093.224	-19.31
1093.468	-154.31
1093.713	-91.31
1093.957	5.69
1094.202	-43.31
1094.447	-213.31
1094.691	-88.31
1094.936	45.69
1095.181	1.69
1095.425	-183.31
1095.67	-146.31
1095.914	31.69
1096.159	16.69
1096.403	-155.31
1096.648	-70.31
1096.893	45.69
1097.137	-94.31
1097.382	-226.31
1097.626	-139.31
1097.871	9.69
1098.115	-54.31
1098.36	-215.31
1098.605	-111.31
1098.849	-58.31
1099.094	-115.31
1099.338	-192.31
1099.583	-94.31
1099.827	124.69
1100.072	36.69
1100.316	-147.31
1100.561	-112.31
1100.805	27.69
1101.05	5.69
1101.294	-168.31
1101.539	-145.31
1101.783	7.69
1102.028	-8.31
1102.273	-163.31
1102.517	-90.31
1102.761	51.69
1103.006	-69.31
1103.25	-260.31
1103.495	-156.31
1103.739	57.69
1103.984	105.69
1104.228	-93.31
1104.473	-30.31
1104.717	43.69
1104.962	7.69
1105.206	-120.31
1105.451	-164.31
1105.695	4.69
1105.94	-20.31
1106.184	-138.31
1106.429	-90.31
1106.673	20.69
1106.917	67.69
1107.162	-163.31
1107.406	-28.31
1107.651	119.69
1107.895	-81.31
1108.14	-198.31
1108.384	-114.31
1108.628	94.69
1108.873	89.69
1109.117	-137.31
1109.362	-128.31
1109.606	-35.31
1109.85	-35.31
1110.095	-173.31
1110.339	-103.31
1110.584	83.69
1110.828	29.69
1111.072	-95.31
1111.317	-134.31
1111.561	-31.31
1111.806	-32.31
1112.05	-186.31
1112.294	-84.31
1112.539	27.69
1112.783	-9.31
1113.027	-132.31
1113.272	-118.31
1113.516	-20.31
1113.76	-36.31
1114.005	-142.31
1114.249	-65.31
1114.493	78.69
1114.738	89.69
1114.982	-44.31
1115.226	-77.31
1115.471	-8.31
1115.715	-21.31
1115.959	-196.31
1116.204	-176.31
1116.448	-2.31
1116.692	-91.31
1116.937	-175.31
1117.181	-18.31
1117.425	-27.31
1117.67	-94.31
1117.914	-156.31
1118.158	-95.31
1118.402	123.69
1118.647	43.69
1118.891	-98.31
1119.135	-51.31
1119.38	95.69
1119.624	10.69
1119.868	-148.31
1120.112	-158.31
1120.357	-69.31
1120.601	-127.31
1120.845	-228.31
1121.089	-160.31
1121.334	21.69
