Data from HR4C21111__9__09-41-23-961.txt Node

Date: Mon Feb 22 09:41:23 IST 2021
User: Kapil
Spectrometer: HR4C2111
Trigger mode: 4
Integration Time (sec): 2.300000E0
Scans to average: 1
Electric dark correction enabled: true
Nonlinearity correction enabled: false
Boxcar width: 0
XAxis mode: Wavelengths
Number of Pixels in Spectrum: 3648
>>>>>Begin Spectral Data<<<<<
189.472	-447.69
189.745	-447.69
190.017	-447.69
190.289	-464.69
190.561	-296.69
190.834	-11.69
191.106	-112.69
191.378	14.31
191.65	0.31
191.923	-133.69
192.195	-98.69
192.467	129.31
192.739	104.31
193.011	-16.69
193.284	77.31
193.556	164.31
193.828	-14.69
194.1	-101.69
194.372	-120.69
194.644	48.31
194.916	64.31
195.188	-145.69
195.46	-83.69
195.732	57.31
196.004	-8.69
196.276	-110.69
196.548	-71.69
196.82	67.31
197.092	57.31
197.364	-136.69
197.636	-103.69
197.908	16.31
198.18	-43.69
198.452	-77.69
198.724	-38.69
198.996	65.31
199.268	90.31
199.54	-17.69
199.811	-111.69
200.083	96.31
200.355	17.31
200.627	-200.69
200.899	-81.69
201.171	45.31
201.442	-62.69
201.714	-186.69
201.986	-106.69
202.258	59.31
202.529	108.31
202.801	-2.69
203.073	68.31
203.345	184.31
203.616	15.31
203.888	-141.69
204.16	-159.69
204.431	76.31
204.703	-5.69
204.974	-131.69
205.246	1.31
205.518	176.31
205.789	-0.69
206.061	-145.69
206.332	-106.69
206.604	9.31
206.876	85.31
207.147	116.31
207.419	24.31
207.69	132.31
207.962	-33.69
208.233	-170.69
208.505	3.31
208.776	169.31
209.047	80.31
209.319	-132.69
209.59	-81.69
209.862	138.31
210.133	47.31
210.404	-140.69
210.676	-110.69
210.947	77.31
211.219	82.31
211.49	-104.69
211.761	-34.69
212.033	35.31
212.304	-40.69
212.575	-183.69
212.846	-77.69
213.118	35.31
213.389	-65.69
213.66	-107.69
213.931	-53.69
214.203	27.31
214.474	-33.69
214.745	-118.69
215.016	130.31
215.287	417.31
215.559	80.31
215.83	-107.69
216.101	-52.69
216.372	13.31
216.643	75.31
216.914	25.31
217.185	-86.69
217.456	144.31
217.727	22.31
217.998	-150.69
218.269	-56.69
218.54	32.31
218.811	-18.69
219.082	-112.69
219.353	-68.69
219.624	-14.69
219.895	-41.69
220.166	-140.69
220.437	-112.69
220.708	86.31
220.979	-22.69
221.25	-139.69
221.521	-104.69
221.792	28.31
222.063	81.31
222.334	22.31
222.604	166.31
222.875	161.31
223.146	88.31
223.417	-167.69
223.688	-28.69
223.958	117.31
224.229	-58.69
224.5	-201.69
224.771	-86.69
225.041	86.31
225.312	40.31
225.583	-110.69
225.854	-65.69
226.124	91.31
226.395	-6.69
226.666	-130.69
226.936	-118.69
227.207	62.31
227.478	-42.69
227.748	-104.69
228.019	45.31
228.289	241.31
228.56	-39.69
228.831	-62.69
229.101	40.31
229.372	64.31
229.642	-26.69
229.913	-170.69
230.183	-134.69
230.454	-6.69
230.724	-5.69
230.995	-112.69
231.265	-70.69
231.536	66.31
231.806	36.31
232.076	-112.69
232.347	-116.69
232.617	23.31
232.888	32.31
233.158	-62.69
233.428	-122.69
233.699	-8.69
233.969	-53.69
234.239	-165.69
234.51	-91.69
234.78	54.31
235.05	-7.69
235.321	-121.69
235.591	-79.69
235.861	47.31
236.131	-55.69
236.402	-197.69
236.672	-88.69
236.942	54.31
237.212	42.31
237.483	-53.69
237.753	18.31
238.023	167.31
238.293	19.31
238.563	-77.69
238.833	-100.69
239.103	70.31
239.374	-14.69
239.644	-149.69
239.914	-37.69
240.184	123.31
240.454	-0.69
240.724	-159.69
240.994	-50.69
241.264	13.31
241.534	52.31
241.804	-18.69
242.074	-79.69
242.344	-29.69
242.614	-51.69
242.884	-175.69
243.154	-116.69
243.424	49.31
243.694	73.31
243.964	-96.69
244.234	-79.69
244.503	137.31
244.773	29.31
245.043	-213.69
245.313	-133.69
245.583	129.31
245.853	86.31
246.123	-173.69
246.392	-104.69
246.662	-4.69
246.932	-22.69
247.202	-172.69
247.471	-66.69
247.741	276.31
248.011	115.31
248.281	-143.69
248.55	-88.69
248.82	61.31
249.09	5.31
249.359	-79.69
249.629	-66.69
249.899	44.31
250.168	48.31
250.438	-40.69
250.708	-98.69
250.977	88.31
251.247	56.31
251.516	-111.69
251.786	-57.69
252.055	118.31
252.325	29.31
252.595	-103.69
252.864	-73.69
253.134	45.31
253.403	-41.69
253.673	-176.69
253.942	-110.69
254.212	43.31
254.481	0.31
254.75	-143.69
255.02	-86.69
255.289	76.31
255.559	-4.69
255.828	-113.69
256.097	-34.69
256.367	24.31
256.636	-62.69
256.906	-141.69
257.175	-0.69
257.444	233.31
257.714	43.31
257.983	-82.69
258.252	-31.69
258.521	16.31
258.791	43.31
259.06	-112.69
259.329	-52.69
259.598	52.31
259.868	-14.69
260.137	-120.69
260.406	9.31
260.675	103.31
260.944	32.31
261.214	-117.69
261.483	-39.69
261.752	165.31
262.021	16.31
262.29	-161.69
262.559	-124.69
262.828	16.31
263.097	-33.69
263.366	-199.69
263.635	-89.69
263.905	123.31
264.174	13.31
264.443	-196.69
264.712	-114.69
264.981	28.31
265.25	-35.69
265.519	-137.69
265.788	-150.69
266.057	32.31
266.325	51.31
266.594	-51.69
266.863	-112.69
267.132	29.31
267.401	-1.69
267.67	-201.69
267.939	-155.69
268.208	19.31
268.477	53.31
268.745	-130.69
269.014	-107.69
269.283	120.31
269.552	39.31
269.821	-117.69
270.089	-20.69
270.358	-2.69
270.627	-17.69
270.896	-124.69
271.164	-154.69
271.433	18.31
271.702	79.31
271.971	-140.69
272.239	-141.69
272.508	20.31
272.777	-25.69
273.045	-4.69
273.314	-14.69
273.583	107.31
273.851	-9.69
274.12	-139.69
274.388	-124.69
274.657	0.31
274.926	7.31
275.194	-158.69
275.463	-71.69
275.731	23.31
276	172.31
276.268	366.31
276.537	-82.69
276.805	33.31
277.074	54.31
277.342	-136.69
277.611	-87.69
277.879	123.31
278.148	54.31
278.416	-122.69
278.684	-111.69
278.953	-22.69
279.221	-37.69
279.49	-184.69
279.758	-88.69
280.026	-10.69
280.295	-4.69
280.563	-104.69
280.831	988.31
281.1	2362.31
281.368	219.31
281.636	-87.69
281.904	-115.69
282.173	-12.69
282.441	-49.69
282.709	-93.69
282.977	13.31
283.246	50.31
283.514	-19.69
283.782	-60.69
284.05	21.31
284.318	80.31
284.587	-18.69
284.855	-117.69
285.123	-47.69
285.391	73.31
285.659	43.31
285.927	-152.69
286.195	-64.69
286.463	59.31
286.732	-28.69
287	-140.69
287.268	-44.69
287.536	29.31
287.804	-46.69
288.072	-141.69
288.34	-86.69
288.608	65.31
288.876	-29.69
289.144	-113.69
289.412	-9.69
289.68	39.31
289.948	-38.69
290.215	-122.69
290.483	-102.69
290.751	88.31
291.019	92.31
291.287	-160.69
291.555	-94.69
291.823	43.31
292.091	-17.69
292.358	-60.69
292.626	6.31
292.894	93.31
293.162	45.31
293.43	-111.69
293.697	-72.69
293.965	48.31
294.233	-25.69
294.501	-169.69
294.768	-73.69
295.036	79.31
295.304	41.31
295.572	-124.69
295.839	-96.69
296.107	112.31
296.375	14.31
296.642	-124.69
296.91	-117.69
297.178	44.31
297.445	165.31
297.713	89.31
297.98	-82.69
298.248	-45.69
298.516	-47.69
298.783	-107.69
299.051	-111.69
299.318	25.31
299.586	-24.69
299.853	-86.69
300.121	-76.69
300.388	55.31
300.656	-3.69
300.923	-142.69
301.191	-37.69
301.458	48.31
301.726	-23.69
301.993	-153.69
302.26	-83.69
302.528	46.31
302.795	-0.69
303.063	-98.69
303.33	-58.69
303.597	34.31
303.865	14.31
304.132	-129.69
304.399	-119.69
304.667	-26.69
304.934	-4.69
305.201	-123.69
305.469	-16.69
305.736	63.31
306.003	46.31
306.27	-47.69
306.538	-92.69
306.805	-1.69
307.072	-26.69
307.339	-79.69
307.606	-47.69
307.874	147.31
308.141	85.31
308.408	-119.69
308.675	-104.69
308.942	-35.69
309.209	-79.69
309.477	-126.69
309.744	-108.69
310.011	23.31
310.278	48.31
310.545	-22.69
310.812	-46.69
311.079	156.31
311.346	214.31
311.613	59.31
311.88	-32.69
312.147	-60.69
312.414	-36.69
312.681	-115.69
312.948	-29.69
313.215	115.31
313.482	69.31
313.749	-97.69
314.016	-192.69
314.283	-56.69
314.55	47.31
314.817	-81.69
315.083	-116.69
315.35	-74.69
315.617	-118.69
315.884	-127.69
316.151	57.31
316.418	168.31
316.684	-25.69
316.951	-178.69
317.218	-89.69
317.485	14.31
317.752	-47.69
318.018	-107.69
318.285	-0.69
318.552	25.31
318.819	-60.69
319.085	-138.69
319.352	-44.69
319.619	45.31
319.885	-33.69
320.152	-197.69
320.419	-106.69
320.685	26.31
320.952	-29.69
321.219	-70.69
321.485	66.31
321.752	13.31
322.019	-47.69
322.285	32.31
322.552	-4.69
322.818	132.31
323.085	-33.69
323.351	-134.69
323.618	-6.69
323.884	49.31
324.151	-64.69
324.417	-21.69
324.684	-77.69
324.95	-32.69
325.217	-136.69
325.483	-176.69
325.75	-36.69
326.016	-4.69
326.283	-26.69
326.549	-187.69
326.815	-74.69
327.082	104.31
327.348	22.31
327.615	-86.69
327.881	-17.69
328.147	127.31
328.414	128.31
328.68	11.31
328.946	-36.69
329.212	21.31
329.479	-2.69
329.745	-112.69
330.011	-99.69
330.278	26.31
330.544	-38.69
330.81	-31.69
331.076	-33.69
331.342	-48.69
331.609	-32.69
331.875	-80.69
332.141	-93.69
332.407	34.31
332.673	8.31
332.94	-24.69
333.206	-53.69
333.472	36.31
333.738	53.31
334.004	-117.69
334.27	-26.69
334.536	6.31
334.802	-34.69
335.068	-101.69
335.334	4.31
335.6	30.31
335.866	-21.69
336.132	-155.69
336.398	-84.69
336.664	-30.69
336.93	-46.69
337.196	-95.69
337.462	-22.69
337.728	36.31
337.994	-26.69
338.26	-83.69
338.526	-36.69
338.792	-47.69
339.058	-48.69
339.324	-134.69
339.59	8.31
339.856	68.31
340.121	-54.69
340.387	-109.69
340.653	91.31
340.919	160.31
341.185	68.31
341.45	-73.69
341.716	33.31
341.982	129.31
342.248	-38.69
342.514	-86.69
342.779	1.31
343.045	23.31
343.311	-22.69
343.576	-94.69
343.842	-44.69
344.108	130.31
344.374	25.31
344.639	-106.69
344.905	-83.69
345.171	70.31
345.436	-55.69
345.702	-101.69
345.967	60.31
346.233	87.31
346.499	24.31
346.764	-156.69
347.03	-59.69
347.295	-23.69
347.561	-3.69
347.826	-33.69
348.092	-102.69
348.357	-21.69
348.623	-40.69
348.888	-127.69
349.154	-78.69
349.419	51.31
349.685	25.31
349.95	-48.69
350.216	-44.69
350.481	40.31
350.747	-39.69
351.012	-153.69
351.277	-101.69
351.543	31.31
351.808	-14.69
352.074	-169.69
352.339	-110.69
352.604	60.31
352.87	22.31
353.135	-108.69
353.4	-62.69
353.666	-0.69
353.931	-14.69
354.196	-147.69
354.461	-113.69
354.727	48.31
354.992	22.31
355.257	-121.69
355.522	-22.69
355.788	24.31
356.053	99.31
356.318	-70.69
356.583	-81.69
356.848	129.31
357.113	240.31
357.379	-44.69
357.644	-53.69
357.909	119.31
358.174	134.31
358.439	-116.69
358.704	-40.69
358.969	81.31
359.234	96.31
359.499	-54.69
359.765	6.31
360.03	121.31
360.295	125.31
360.56	-44.69
360.825	10.31
361.09	218.31
361.355	49.31
361.62	-3.69
361.885	25.31
362.15	30.31
362.415	51.31
362.679	-12.69
362.944	141.31
363.209	158.31
363.474	167.31
363.739	104.31
364.004	19.31
364.269	103.31
364.534	138.31
364.799	97.31
365.063	95.31
365.328	184.31
365.593	188.31
365.858	70.31
366.123	67.31
366.387	209.31
366.652	137.31
366.917	44.31
367.182	118.31
367.447	241.31
367.711	183.31
367.976	125.31
368.241	217.31
368.505	287.31
368.77	201.31
369.035	190.31
369.299	229.31
369.564	262.31
369.829	211.31
370.093	177.31
370.358	172.31
370.623	282.31
370.887	316.31
371.152	165.31
371.416	233.31
371.681	301.31
371.946	229.31
372.21	213.31
372.475	339.31
372.739	361.31
373.004	333.31
373.268	284.31
373.533	337.31
373.797	422.31
374.062	417.31
374.326	266.31
374.591	362.31
374.855	458.31
375.12	394.31
375.384	250.31
375.648	337.31
375.913	501.31
376.177	514.31
376.442	374.31
376.706	413.31
376.97	572.31
377.235	539.31
377.499	526.31
377.763	546.31
378.028	530.31
378.292	574.31
378.556	515.31
378.821	473.31
379.085	551.31
379.349	516.31
379.614	460.31
379.878	601.31
380.142	767.31
380.406	715.31
380.671	697.31
380.935	831.31
381.199	969.31
381.463	863.31
381.727	821.31
381.991	775.31
382.256	878.31
382.52	841.31
382.784	861.31
383.048	988.31
383.312	916.31
383.576	899.31
383.84	802.31
384.104	880.31
384.369	1002.31
384.633	899.31
384.897	821.31
385.161	970.31
385.425	1066.31
385.689	1033.31
385.953	1003.31
386.217	1006.31
386.481	1127.31
386.745	1166.31
387.009	1130.31
387.273	1096.31
387.537	1160.31
387.801	1200.31
388.064	1173.31
388.328	1287.31
388.592	1348.31
388.856	1313.31
389.12	1261.31
389.384	1342.31
389.648	1385.31
389.912	1460.31
390.176	1488.31
390.439	1585.31
390.703	1426.31
390.967	1421.31
391.231	1365.31
391.495	1440.31
391.758	1549.31
392.022	1560.31
392.286	1440.31
392.55	1505.31
392.813	1637.31
393.077	1681.31
393.341	1636.31
393.605	1711.31
393.868	1697.31
394.132	1714.31
394.396	1691.31
394.659	1833.31
394.923	1789.31
395.187	1730.31
395.45	1757.31
395.714	1842.31
395.978	1851.31
396.241	1846.31
396.505	1800.31
396.768	1893.31
397.032	1986.31
397.295	1987.31
397.559	1930.31
397.823	1915.31
398.086	2053.31
398.35	1996.31
398.613	1949.31
398.877	2052.31
399.14	2196.31
399.404	2226.31
399.667	2148.31
399.931	2108.31
400.194	2200.31
400.457	2200.31
400.721	2201.31
400.984	2313.31
401.248	2269.31
401.511	2247.31
401.775	2145.31
402.038	2220.31
402.301	2487.31
402.565	2441.31
402.828	2231.31
403.091	2329.31
403.355	2466.31
403.618	2442.31
403.881	2428.31
404.145	2449.31
404.408	2532.31
404.671	2468.31
404.934	2552.31
405.198	2611.31
405.461	2589.31
405.724	2664.31
405.987	2673.31
406.251	2761.31
406.514	2874.31
406.777	2726.31
407.04	2618.31
407.303	2643.31
407.567	2780.31
407.83	2853.31
408.093	2663.31
408.356	2787.31
408.619	2908.31
408.882	2955.31
409.145	2856.31
409.408	2857.31
409.672	3018.31
409.935	2931.31
410.198	2849.31
410.461	2939.31
410.724	3124.31
410.987	3087.31
411.25	2864.31
411.513	2996.31
411.776	3089.31
412.039	2964.31
412.302	2923.31
412.565	3001.31
412.828	3004.31
413.091	3010.31
413.354	2933.31
413.617	2920.31
413.879	2998.31
414.142	3004.31
414.405	2839.31
414.668	2897.31
414.931	3044.31
415.194	3012.31
415.457	2894.31
415.72	2957.31
415.983	2960.31
416.245	3014.31
416.508	2936.31
416.771	2873.31
417.034	3022.31
417.297	3039.31
417.559	2971.31
417.822	2962.31
418.085	3062.31
418.348	3064.31
418.61	2926.31
418.873	2904.31
419.136	2957.31
419.399	2940.31
419.661	3001.31
419.924	2932.31
420.187	3045.31
420.449	3065.31
420.712	3002.31
420.975	2970.31
421.237	3040.31
421.5	3081.31
421.762	3171.31
422.025	3187.31
422.288	3235.31
422.55	3076.31
422.813	2968.31
423.075	3074.31
423.338	3177.31
423.601	3255.31
423.863	3195.31
424.126	3209.31
424.388	3318.31
424.651	3278.31
424.913	3245.31
425.176	3277.31
425.438	3308.31
425.701	3268.31
425.963	3164.31
426.225	3197.31
426.488	3300.31
426.75	3305.31
427.013	3274.31
427.275	3370.31
427.538	3399.31
427.8	3392.31
428.062	3300.31
428.325	3365.31
428.587	3417.31
428.849	3409.31
429.112	3419.31
429.374	3388.31
429.636	3416.31
429.899	3525.31
430.161	3439.31
430.423	3468.31
430.686	3608.31
430.948	3602.31
431.21	3429.31
431.472	3404.31
431.735	3537.31
431.997	3550.31
432.259	3549.31
432.521	3439.31
432.783	3574.31
433.046	3586.31
433.308	3491.31
433.57	3535.31
433.832	3757.31
434.094	3562.31
434.356	3418.31
434.618	3528.31
434.881	3611.31
435.143	3652.31
435.405	3659.31
435.667	3615.31
435.929	3616.31
436.191	3633.31
436.453	3590.31
436.715	3668.31
436.977	3816.31
437.239	3882.31
437.501	3748.31
437.763	3725.31
438.025	3812.31
438.287	3792.31
438.549	3772.31
438.811	3714.31
439.073	3725.31
439.335	3807.31
439.597	3741.31
439.859	3721.31
440.121	3854.31
440.383	3761.31
440.645	3696.31
440.907	3774.31
441.168	3808.31
441.43	3828.31
441.692	3828.31
441.954	3876.31
442.216	3919.31
442.478	3871.31
442.74	3745.31
443.001	3877.31
443.263	4030.31
443.525	3841.31
443.787	3725.31
444.048	3741.31
444.31	3841.31
444.572	3853.31
444.834	3798.31
445.095	3847.31
445.357	4012.31
445.619	3799.31
445.881	3690.31
446.142	3815.31
446.404	3817.31
446.666	3831.31
446.927	3801.31
447.189	3943.31
447.451	4032.31
447.712	3830.31
447.974	3665.31
448.235	3726.31
448.497	3789.31
448.759	3772.31
449.02	3783.31
449.282	3741.31
449.543	3867.31
449.805	3931.31
450.066	3693.31
450.328	3766.31
450.59	3997.31
450.851	3885.31
451.113	3713.31
451.374	3684.31
451.636	3927.31
451.897	3973.31
452.158	3874.31
452.42	3943.31
452.681	3982.31
452.943	3813.31
453.204	3850.31
453.466	3839.31
453.727	3822.31
453.988	3838.31
454.25	3736.31
454.511	3757.31
454.773	3854.31
455.034	4000.31
455.295	3749.31
455.557	3835.31
455.818	3926.31
456.079	3941.31
456.341	4008.31
456.602	4048.31
456.863	4091.31
457.124	3933.31
457.386	3810.31
457.647	3801.31
457.908	3885.31
458.169	4053.31
458.431	3900.31
458.692	3930.31
458.953	3965.31
459.214	3944.31
459.476	4107.31
459.737	4237.31
459.998	4224.31
460.259	4086.31
460.52	4049.31
460.781	4173.31
461.043	4373.31
461.304	4225.31
461.565	4026.31
461.826	4104.31
462.087	4291.31
462.348	4437.31
462.609	4362.31
462.87	4340.31
463.131	4238.31
463.392	4485.31
463.653	4474.31
463.914	4472.31
464.175	4459.31
464.436	4475.31
464.697	4521.31
464.958	4424.31
465.219	4484.31
465.48	4577.31
465.741	4604.31
466.002	4480.31
466.263	4634.31
466.524	4668.31
466.785	4577.31
467.046	4683.31
467.307	4812.31
467.568	4873.31
467.829	4815.31
468.089	4811.31
468.35	4881.31
468.611	4794.31
468.872	4724.31
469.133	4913.31
469.394	5112.31
469.655	5207.31
469.915	5075.31
470.176	4957.31
470.437	5040.31
470.698	5160.31
470.958	5187.31
471.219	5189.31
471.48	5378.31
471.741	5501.31
472.001	5467.31
472.262	5458.31
472.523	5622.31
472.784	5702.31
473.044	5569.31
473.305	5626.31
473.566	5676.31
473.826	5802.31
474.087	5778.31
474.348	5820.31
474.608	5962.31
474.869	5929.31
475.129	5853.31
475.39	5959.31
475.651	6144.31
475.911	6261.31
476.172	6156.31
476.432	6247.31
476.693	6456.31
476.953	6313.31
477.214	6331.31
477.475	6405.31
477.735	6445.31
477.996	6613.31
478.256	6497.31
478.517	6598.31
478.777	6676.31
479.038	6854.31
479.298	6937.31
479.558	6953.31
479.819	6997.31
480.079	7005.31
480.34	7099.31
480.6	7139.31
480.861	7265.31
481.121	7288.31
481.381	7208.31
481.642	7287.31
481.902	7344.31
482.162	7330.31
482.423	7335.31
482.683	7464.31
482.943	7573.31
483.204	7550.31
483.464	7515.31
483.724	7563.31
483.985	7697.31
484.245	7780.31
484.505	7709.31
484.765	7806.31
485.026	7816.31
485.286	7928.31
485.546	7936.31
485.806	7966.31
486.067	7996.31
486.327	7926.31
486.587	7904.31
486.847	7969.31
487.107	8100.31
487.368	8164.31
487.628	8152.31
487.888	8213.31
488.148	8273.31
488.408	8184.31
488.668	8283.31
488.928	8250.31
489.188	8296.31
489.449	8413.31
489.709	8362.31
489.969	8371.31
490.229	8446.31
490.489	8473.31
490.749	8371.31
491.009	8340.31
491.269	8463.31
491.529	8454.31
491.789	8453.31
492.049	8584.31
492.309	8687.31
492.569	8568.31
492.829	8554.31
493.089	8543.31
493.349	8677.31
493.609	8634.31
493.869	8522.31
494.129	8652.31
494.389	8751.31
494.648	8649.31
494.908	8595.31
495.168	8612.31
495.428	8710.31
495.688	8697.31
495.948	8559.31
496.208	8585.31
496.467	8690.31
496.727	8706.31
496.987	8691.31
497.247	8765.31
497.507	8796.31
497.767	8807.31
498.026	8642.31
498.286	8782.31
498.546	8981.31
498.806	8818.31
499.065	8850.31
499.325	8777.31
499.585	8759.31
499.845	8752.31
500.104	8739.31
500.364	8853.31
500.624	8840.31
500.883	8709.31
501.143	8748.31
501.403	8842.31
501.662	8949.31
501.922	8881.31
502.182	8659.31
502.441	8657.31
502.701	8742.31
502.96	8849.31
503.22	8823.31
503.48	8807.31
503.739	8885.31
503.999	8812.31
504.258	8678.31
504.518	8756.31
504.777	8844.31
505.037	8852.31
505.296	8788.31
505.556	8816.31
505.815	8963.31
506.075	9027.31
506.334	8915.31
506.594	8673.31
506.853	8788.31
507.113	8771.31
507.372	8676.31
507.632	8755.31
507.891	8836.31
508.151	8916.31
508.41	8737.31
508.669	8716.31
508.929	8839.31
509.188	8775.31
509.447	8794.31
509.707	8747.31
509.966	8766.31
510.226	8844.31
510.485	8799.31
510.744	8835.31
511.004	8863.31
511.263	8727.31
511.522	8673.31
511.781	8712.31
512.041	8819.31
512.3	8758.31
512.559	8807.31
512.818	8842.31
513.078	8839.31
513.337	8814.31
513.596	8684.31
513.855	8767.31
514.115	8864.31
514.374	8839.31
514.633	8750.31
514.892	8731.31
515.151	8918.31
515.41	8930.31
515.67	8785.31
515.929	8779.31
516.188	8905.31
516.447	8838.31
516.706	8762.31
516.965	8863.31
517.224	8928.31
517.483	8884.31
517.743	8779.31
518.002	8859.31
518.261	8962.31
518.52	8936.31
518.779	8842.31
519.038	8856.31
519.297	8892.31
519.556	8918.31
519.815	8803.31
520.074	8780.31
520.333	8897.31
520.592	8883.31
520.851	8771.31
521.11	8890.31
521.369	9015.31
521.628	8846.31
521.887	8763.31
522.145	8829.31
522.404	8859.31
522.663	8872.31
522.922	8778.31
523.181	8811.31
523.44	8920.31
523.699	8998.31
523.958	8808.31
524.217	8781.31
524.475	8800.31
524.734	8794.31
524.993	8799.31
525.252	8793.31
525.511	8821.31
525.769	8815.31
526.028	8719.31
526.287	8758.31
526.546	8826.31
526.805	8794.31
527.063	8650.31
527.322	8660.31
527.581	8791.31
527.839	8817.31
528.098	8799.31
528.357	8748.31
528.616	8789.31
528.874	8766.31
529.133	8727.31
529.392	8765.31
529.65	8760.31
529.909	8708.31
530.168	8591.31
530.426	8621.31
530.685	8811.31
530.943	8855.31
531.202	8701.31
531.461	8645.31
531.719	8817.31
531.978	8730.31
532.236	8611.31
532.495	8675.31
532.753	8788.31
533.012	8706.31
533.271	8602.31
533.529	8586.31
533.788	8699.31
534.046	8632.31
534.305	8564.31
534.563	8844.31
534.822	8878.31
535.08	8743.31
535.338	8667.31
535.597	8693.31
535.855	8794.31
536.114	8705.31
536.372	8632.31
536.631	8757.31
536.889	8851.31
537.147	8770.31
537.406	8595.31
537.664	8759.31
537.923	8818.31
538.181	8786.31
538.439	8695.31
538.698	8839.31
538.956	8841.31
539.214	8754.31
539.473	8763.31
539.731	8873.31
539.989	9008.31
540.248	8848.31
540.506	8829.31
540.764	8842.31
541.022	8860.31
541.281	8916.31
541.539	8880.31
541.797	8890.31
542.055	9076.31
542.314	9141.31
542.572	9105.31
542.83	8970.31
543.088	9078.31
543.346	9047.31
543.604	8945.31
543.863	9048.31
544.121	9215.31
544.379	9149.31
544.637	9023.31
544.895	9205.31
545.153	9366.31
545.411	9147.31
545.67	9052.31
545.928	9232.31
546.186	9335.31
546.444	9372.31
546.702	9309.31
546.96	9361.31
547.218	9430.31
547.476	9384.31
547.734	9322.31
547.992	9411.31
548.25	9580.31
548.508	9475.31
548.766	9472.31
549.024	9549.31
549.282	9623.31
549.54	9672.31
549.798	9641.31
550.056	9615.31
550.314	9746.31
550.572	9715.31
550.83	9610.31
551.088	9775.31
551.346	9910.31
551.603	9941.31
551.861	9866.31
552.119	9996.31
552.377	10049.31
552.635	9955.31
552.893	9850.31
553.151	9940.31
553.409	10105.31
553.666	10134.31
553.924	10060.31
554.182	10056.31
554.44	10173.31
554.698	10279.31
554.955	10206.31
555.213	10209.31
555.471	10357.31
555.729	10311.31
555.986	10172.31
556.244	10291.31
556.502	10536.31
556.76	10378.31
557.017	10405.31
557.275	10407.31
557.533	10589.31
557.79	10561.31
558.048	10410.31
558.306	10486.31
558.563	10602.31
558.821	10547.31
559.079	10488.31
559.336	10521.31
559.594	10564.31
559.852	10480.31
560.109	10491.31
560.367	10615.31
560.624	10707.31
560.882	10664.31
561.14	10685.31
561.397	10799.31
561.655	10705.31
561.912	10761.31
562.17	10675.31
562.427	10745.31
562.685	10837.31
562.942	10795.31
563.2	10668.31
563.457	10720.31
563.715	10778.31
563.972	10881.31
564.23	10648.31
564.487	10596.31
564.745	10768.31
565.002	10759.31
565.26	10678.31
565.517	10641.31
565.774	10680.31
566.032	10753.31
566.289	10656.31
566.547	10660.31
566.804	10852.31
567.061	10805.31
567.319	10646.31
567.576	10711.31
567.833	10791.31
568.091	10841.31
568.348	10757.31
568.605	10789.31
568.863	10765.31
569.12	10677.31
569.377	10621.31
569.635	10586.31
569.892	10595.31
570.149	10536.31
570.406	10447.31
570.664	10499.31
570.921	10642.31
571.178	10493.31
571.435	10414.31
571.693	10473.31
571.95	10547.31
572.207	10420.31
572.464	10337.31
572.721	10379.31
572.979	10398.31
573.236	10312.31
573.493	10204.31
573.75	10247.31
574.007	10283.31
574.264	10155.31
574.521	10101.31
574.779	10105.31
575.036	10214.31
575.293	10102.31
575.55	10066.31
575.807	10006.31
576.064	10001.31
576.321	9995.31
576.578	9799.31
576.835	9764.31
577.092	9950.31
577.349	9786.31
577.606	9619.31
577.863	9656.31
578.12	9719.31
578.377	9655.31
578.634	9431.31
578.891	9487.31
579.148	9551.31
579.405	9415.31
579.662	9268.31
579.919	9308.31
580.176	9275.31
580.433	9245.31
580.69	9167.31
580.947	9220.31
581.204	9194.31
581.461	9037.31
581.717	8944.31
581.974	9079.31
582.231	9051.31
582.488	8819.31
582.745	8596.31
583.002	8652.31
583.259	8829.31
583.515	8706.31
583.772	8559.31
584.029	8569.31
584.286	8637.31
584.543	8422.31
584.799	8348.31
585.056	8420.31
585.313	8485.31
585.57	8477.31
585.826	8299.31
586.083	8306.31
586.34	8432.31
586.597	8207.31
586.853	8007.31
587.11	8008.31
587.367	8144.31
587.623	8156.31
587.88	8042.31
588.137	7844.31
588.393	7977.31
588.65	7822.31
588.907	7710.31
589.163	7768.31
589.42	7808.31
589.677	7733.31
589.933	7582.31
590.19	7653.31
590.446	7744.31
590.703	7726.31
590.96	7503.31
591.216	7463.31
591.473	7517.31
591.729	7441.31
591.986	7361.31
592.242	7406.31
592.499	7598.31
592.755	7456.31
593.012	7297.31
593.268	7328.31
593.525	7279.31
593.781	7278.31
594.038	7204.31
594.294	7267.31
594.551	7264.31
594.807	7226.31
595.064	7183.31
595.32	7171.31
595.576	7279.31
595.833	7264.31
596.089	7085.31
596.346	7157.31
596.602	7186.31
596.858	7225.31
597.115	7111.31
597.371	7120.31
597.628	7114.31
597.884	7065.31
598.14	6967.31
598.397	7099.31
598.653	7193.31
598.909	7106.31
599.166	6947.31
599.422	6988.31
599.678	7076.31
599.934	7040.31
600.191	6876.31
600.447	6930.31
600.703	6957.31
600.959	6871.31
601.216	6737.31
601.472	6834.31
601.728	6957.31
601.984	6910.31
602.241	6834.31
602.497	6891.31
602.753	6980.31
603.009	6879.31
603.265	6795.31
603.521	6927.31
603.778	7009.31
604.034	6871.31
604.29	6758.31
604.546	6841.31
604.802	6923.31
605.058	6795.31
605.314	6749.31
605.571	6883.31
605.827	6818.31
606.083	6777.31
606.339	6742.31
606.595	6851.31
606.851	6912.31
607.107	6937.31
607.363	6745.31
607.619	6789.31
607.875	6992.31
608.131	6897.31
608.387	6651.31
608.643	6701.31
608.899	6763.31
609.155	6672.31
609.411	6667.31
609.667	6718.31
609.923	6739.31
610.179	6703.31
610.435	6586.31
610.691	6674.31
610.947	6759.31
611.203	6660.31
611.459	6569.31
611.714	6672.31
611.97	6792.31
612.226	6741.31
612.482	6537.31
612.738	6651.31
612.994	6809.31
613.25	6587.31
613.505	6453.31
613.761	6515.31
614.017	6573.31
614.273	6553.31
614.529	6490.31
614.785	6447.31
615.04	6571.31
615.296	6558.31
615.552	6495.31
615.808	6456.31
616.063	6547.31
616.319	6496.31
616.575	6388.31
616.831	6450.31
617.086	6608.31
617.342	6576.31
617.598	6455.31
617.854	6491.31
618.109	6489.31
618.365	6347.31
618.621	6264.31
618.876	6307.31
619.132	6393.31
619.388	6344.31
619.643	6179.31
619.899	6303.31
620.155	6348.31
620.41	6344.31
620.666	6185.31
620.921	6237.31
621.177	6359.31
621.433	6343.31
621.688	6240.31
621.944	6163.31
622.199	6172.31
622.455	6216.31
622.71	6126.31
622.966	6109.31
623.221	6097.31
623.477	6099.31
623.732	6095.31
623.988	6001.31
624.243	6121.31
624.499	6129.31
624.754	5917.31
625.01	5978.31
625.265	6101.31
625.521	6146.31
625.776	5992.31
626.032	5949.31
626.287	5968.31
626.543	5944.31
626.798	5845.31
627.053	5798.31
627.309	5882.31
627.564	5819.31
627.82	5787.31
628.075	5894.31
628.33	5842.31
628.586	5666.31
628.841	5551.31
629.096	5676.31
629.352	5758.31
629.607	5661.31
629.862	5649.31
630.118	5724.31
630.373	5644.31
630.628	5683.31
630.884	5537.31
631.139	5583.31
631.394	5699.31
631.649	5594.31
631.905	5467.31
632.16	5540.31
632.415	5714.31
632.67	5546.31
632.926	5396.31
633.181	5383.31
633.436	5486.31
633.691	5416.31
633.946	5289.31
634.202	5300.31
634.457	5382.31
634.712	5364.31
634.967	5219.31
635.222	5209.31
635.477	5233.31
635.733	5240.31
635.988	5116.31
636.243	5159.31
636.498	5298.31
636.753	5272.31
637.008	5088.31
637.263	5164.31
637.518	5209.31
637.773	5181.31
638.028	5106.31
638.283	5116.31
638.539	5189.31
638.794	5192.31
639.049	5037.31
639.304	5017.31
639.559	5009.31
639.814	4986.31
640.069	4931.31
640.324	4972.31
640.579	5080.31
640.834	4986.31
641.089	4818.31
641.344	4904.31
641.598	5081.31
641.853	4959.31
642.108	4763.31
642.363	4715.31
642.618	4884.31
642.873	4758.31
643.128	4643.31
643.383	4730.31
643.638	4799.31
643.893	4844.31
644.148	4761.31
644.402	4665.31
644.657	4725.31
644.912	4664.31
645.167	4651.31
645.422	4699.31
645.677	4687.31
645.931	4707.31
646.186	4706.31
646.441	4622.31
646.696	4569.31
646.951	4580.31
647.205	4533.31
647.46	4470.31
647.715	4509.31
647.97	4681.31
648.224	4761.31
648.479	4605.31
648.734	4718.31
648.989	4655.31
649.243	4540.31
649.498	4497.31
649.753	4508.31
650.007	4547.31
650.262	4431.31
650.517	4431.31
650.771	4486.31
651.026	4419.31
651.281	4260.31
651.535	4387.31
651.79	4433.31
652.045	4404.31
652.299	4313.31
652.554	4322.31
652.809	4430.31
653.063	4567.31
653.318	4463.31
653.572	4306.31
653.827	4409.31
654.081	4326.31
654.336	4198.31
654.591	4226.31
654.845	4321.31
655.1	4242.31
655.354	4246.31
655.609	4337.31
655.863	4395.31
656.118	4368.31
656.372	4245.31
656.627	4245.31
656.881	4287.31
657.136	4242.31
657.39	4165.31
657.645	4298.31
657.899	4407.31
658.153	4268.31
658.408	4187.31
658.662	4227.31
658.917	4261.31
659.171	4168.31
659.426	4098.31
659.68	4159.31
659.934	4241.31
660.189	4209.31
660.443	4106.31
660.697	4237.31
660.952	4287.31
661.206	4169.31
661.46	4064.31
661.715	4156.31
661.969	4267.31
662.223	4266.31
662.478	4154.31
662.732	4157.31
662.986	4229.31
663.241	4224.31
663.495	4112.31
663.749	4173.31
664.003	4274.31
664.258	4192.31
664.512	4127.31
664.766	4173.31
665.02	4286.31
665.275	4293.31
665.529	4088.31
665.783	4155.31
666.037	4258.31
666.291	4196.31
666.546	4116.31
666.8	4175.31
667.054	4158.31
667.308	4242.31
667.562	4068.31
667.816	4160.31
668.071	4276.31
668.325	4166.31
668.579	4167.31
668.833	4197.31
669.087	4382.31
669.341	4294.31
669.595	4115.31
669.849	4219.31
670.103	4280.31
670.357	4284.31
670.612	4249.31
670.866	4202.31
671.12	4301.31
671.374	4301.31
671.628	4260.31
671.882	4268.31
672.136	4363.31
672.39	4322.31
672.644	4136.31
672.898	4310.31
673.152	4490.31
673.406	4402.31
673.66	4342.31
673.914	4395.31
674.168	4438.31
674.422	4377.31
674.675	4292.31
674.929	4344.31
675.183	4463.31
675.437	4450.31
675.691	4372.31
675.945	4443.31
676.199	4571.31
676.453	4395.31
676.707	4302.31
676.961	4328.31
677.214	4407.31
677.468	4450.31
677.722	4472.31
677.976	4447.31
678.23	4523.31
678.484	4530.31
678.737	4431.31
678.991	4411.31
679.245	4489.31
679.499	4452.31
679.753	4402.31
680.006	4539.31
680.26	4637.31
680.514	4606.31
680.768	4489.31
681.021	4596.31
681.275	4565.31
681.529	4546.31
681.783	4526.31
682.036	4600.31
682.29	4552.31
682.544	4563.31
682.797	4539.31
683.051	4509.31
683.305	4609.31
683.559	4654.31
683.812	4631.31
684.066	4632.31
684.32	4713.31
684.573	4679.31
684.827	4688.31
685.08	4680.31
685.334	4810.31
685.588	4739.31
685.841	4619.31
686.095	4743.31
686.348	4768.31
686.602	4755.31
686.856	4683.31
687.109	4648.31
687.363	4721.31
687.616	4714.31
687.87	4608.31
688.123	4637.31
688.377	4768.31
688.63	4810.31
688.884	4758.31
689.137	4830.31
689.391	4853.31
689.644	4736.31
689.898	4625.31
690.151	4687.31
690.405	4830.31
690.658	4775.31
690.912	4683.31
691.165	4713.31
691.419	4797.31
691.672	4843.31
691.926	4800.31
692.179	4753.31
692.432	4848.31
692.686	4860.31
692.939	4700.31
693.193	4756.31
693.446	4887.31
693.699	4872.31
693.953	4880.31
694.206	4816.31
694.459	4923.31
694.713	4931.31
694.966	4773.31
695.219	4795.31
695.473	4940.31
695.726	4867.31
695.979	4776.31
696.233	4904.31
696.486	4931.31
696.739	4841.31
696.992	4781.31
697.246	4921.31
697.499	5023.31
697.752	4811.31
698.006	4784.31
698.259	4899.31
698.512	4870.31
698.765	4854.31
699.018	4793.31
699.272	4847.31
699.525	4834.31
699.778	4769.31
700.031	4767.31
700.284	4802.31
700.538	4890.31
700.791	4865.31
701.044	4815.31
701.297	4844.31
701.55	4882.31
701.803	4860.31
702.056	4734.31
702.31	4807.31
702.563	4914.31
702.816	4823.31
703.069	4675.31
703.322	4729.31
703.575	4819.31
703.828	4857.31
704.081	4776.31
704.334	4781.31
704.587	4855.31
704.84	4805.31
705.093	4772.31
705.346	4874.31
705.599	4843.31
705.853	4800.31
706.106	4845.31
706.359	5089.31
706.612	4884.31
706.865	4912.31
707.118	4708.31
707.37	4752.31
707.623	4860.31
707.876	4824.31
708.129	4752.31
708.382	4857.31
708.635	4937.31
708.888	4774.31
709.141	4645.31
709.394	4809.31
709.647	4879.31
709.9	4752.31
710.153	4623.31
710.406	4743.31
710.658	4827.31
710.911	4745.31
711.164	4599.31
711.417	4577.31
711.67	4687.31
711.923	4755.31
712.176	4590.31
712.428	4615.31
712.681	4720.31
712.934	4704.31
713.187	4624.31
713.44	4583.31
713.692	4727.31
713.945	4663.31
714.198	4520.31
714.451	4488.31
714.704	4651.31
714.956	4679.31
715.209	4684.31
715.462	4651.31
715.715	4664.31
715.967	4605.31
716.22	4434.31
716.473	4456.31
716.725	4593.31
716.978	4576.31
717.231	4537.31
717.484	4548.31
717.736	4489.31
717.989	4407.31
718.242	4357.31
718.494	4478.31
718.747	4624.31
718.999	4526.31
719.252	4517.31
719.505	4481.31
719.757	4511.31
720.01	4477.31
720.263	4409.31
720.515	4386.31
720.768	4462.31
721.02	4448.31
721.273	4323.31
721.525	4262.31
721.778	4364.31
722.031	4435.31
722.283	4292.31
722.536	4266.31
722.788	4348.31
723.041	4297.31
723.293	4203.31
723.546	4214.31
723.798	4268.31
724.051	4323.31
724.303	4285.31
724.556	4321.31
724.808	4372.31
725.061	4279.31
725.313	4153.31
725.566	4193.31
725.818	4213.31
726.071	4192.31
726.323	4033.31
726.575	4076.31
726.828	4209.31
727.08	4212.31
727.333	4054.31
727.585	4080.31
727.837	4137.31
728.09	4122.31
728.342	3984.31
728.595	4075.31
728.847	4228.31
729.099	4021.31
729.352	4002.31
729.604	3997.31
729.856	4090.31
730.109	4051.31
730.361	3936.31
730.613	4034.31
730.866	4128.31
731.118	4001.31
731.37	3900.31
731.622	3905.31
731.875	3987.31
732.127	4008.31
732.379	3997.31
732.631	4023.31
732.884	3975.31
733.136	3914.31
733.388	3835.31
733.64	3874.31
733.893	3961.31
734.145	3892.31
734.397	3760.31
734.649	3785.31
734.901	3862.31
735.154	3769.31
735.406	3713.31
735.658	3791.31
735.91	3880.31
736.162	3793.31
736.414	3641.31
736.667	3746.31
736.919	3803.31
737.171	3687.31
737.423	3645.31
737.675	3701.31
737.927	3789.31
738.179	3732.31
738.431	3673.31
738.684	3610.31
738.936	3685.31
739.188	3726.31
739.44	3510.31
739.692	3533.31
739.944	3602.31
740.196	3617.31
740.448	3507.31
740.7	3528.31
740.952	3572.31
741.204	3566.31
741.456	3467.31
741.708	3501.31
741.96	3505.31
742.212	3577.31
742.464	3592.31
742.716	3441.31
742.968	3504.31
743.22	3494.31
743.472	3410.31
743.724	3432.31
743.976	3552.31
744.228	3553.31
744.48	3356.31
744.732	3379.31
744.983	3503.31
745.235	3463.31
745.487	3385.31
745.739	3461.31
745.991	3445.31
746.243	3501.31
746.495	3308.31
746.747	3352.31
746.999	3447.31
747.25	3451.31
747.502	3379.31
747.754	3423.31
748.006	3385.31
748.258	3483.31
748.51	3533.31
748.761	3368.31
749.013	3390.31
749.265	3436.31
749.517	3433.31
749.768	3473.31
750.02	3468.31
750.272	3404.31
750.524	3228.31
750.776	3203.31
751.027	3393.31
751.279	3396.31
751.531	3185.31
751.782	3264.31
752.034	3363.31
752.286	3274.31
752.538	3157.31
752.789	3265.31
753.041	3348.31
753.293	3288.31
753.544	3184.31
753.796	3206.31
754.048	3273.31
754.299	3263.31
754.551	3204.31
754.803	3145.31
755.054	3208.31
755.306	3254.31
755.558	3115.31
755.809	3124.31
756.061	3277.31
756.312	3161.31
756.564	3121.31
756.816	3117.31
757.067	3108.31
757.319	3092.31
757.57	3046.31
757.822	3139.31
758.073	3240.31
758.325	3186.31
758.577	3031.31
758.828	3015.31
759.08	3188.31
759.331	3181.31
759.583	3006.31
759.834	3087.31
760.086	3072.31
760.337	3029.31
760.589	2969.31
760.84	2985.31
761.092	3060.31
761.343	3039.31
761.595	2873.31
761.846	2982.31
762.097	3017.31
762.349	2968.31
762.6	2816.31
762.852	2975.31
763.103	3096.31
763.355	2955.31
763.606	2844.31
763.857	3003.31
764.109	3120.31
764.36	2992.31
764.612	2906.31
764.863	2979.31
765.114	2981.31
765.366	2859.31
765.617	2795.31
765.868	2837.31
766.12	2960.31
766.371	2924.31
766.622	2767.31
766.874	2847.31
767.125	2973.31
767.376	2840.31
767.628	2763.31
767.879	2826.31
768.13	2913.31
768.381	2905.31
768.633	2831.31
768.884	2834.31
769.135	2879.31
769.386	2837.31
769.638	2788.31
769.889	2771.31
770.14	2809.31
770.391	2743.31
770.643	2713.31
770.894	2661.31
771.145	2808.31
771.396	2744.31
771.647	2643.31
771.899	2729.31
772.15	2828.31
772.401	2770.31
772.652	2618.31
772.903	2643.31
773.154	2979.31
773.406	3209.31
773.657	2666.31
773.908	2641.31
774.159	2724.31
774.41	2726.31
774.661	2601.31
774.912	2642.31
775.163	2800.31
775.414	2825.31
775.666	2583.31
775.917	2569.31
776.168	2601.31
776.419	2574.31
776.67	2503.31
776.921	2500.31
777.172	2614.31
777.423	2626.31
777.674	2624.31
777.925	2578.31
778.176	2528.31
778.427	2549.31
778.678	2456.31
778.929	2473.31
779.18	2579.31
779.431	2509.31
779.682	2495.31
779.933	2531.31
780.184	2544.31
780.435	2509.31
780.686	2473.31
780.937	2546.31
781.188	2594.31
781.439	2652.31
781.69	2549.31
781.941	2498.31
782.191	2515.31
782.442	2471.31
782.693	2362.31
782.944	2402.31
783.195	2472.31
783.446	2452.31
783.697	2442.31
783.948	2369.31
784.199	2397.31
784.449	2378.31
784.7	2384.31
784.951	2414.31
785.202	2540.31
785.453	2462.31
785.704	2284.31
785.954	2277.31
786.205	2365.31
786.456	2309.31
786.707	2217.31
786.958	2257.31
787.208	2348.31
787.459	2328.31
787.71	2323.31
787.961	2295.31
788.211	2329.31
788.462	2339.31
788.713	2260.31
788.964	2247.31
789.214	2377.31
789.465	2373.31
789.716	2301.31
789.967	2284.31
790.217	2279.31
790.468	2241.31
790.719	2169.31
790.969	2239.31
791.22	2276.31
791.471	2342.31
791.721	2362.31
791.972	2251.31
792.223	2252.31
792.473	2192.31
792.724	2209.31
792.975	2163.31
793.225	2256.31
793.476	2249.31
793.726	2145.31
793.977	2213.31
794.228	2360.31
794.478	2256.31
794.729	2113.31
794.979	2220.31
795.23	2259.31
795.481	2209.31
795.731	2088.31
795.982	2163.31
796.232	2145.31
796.483	2094.31
796.733	2060.31
796.984	2083.31
797.234	2169.31
797.485	2188.31
797.735	2049.31
797.986	2065.31
798.236	2179.31
798.487	2123.31
798.737	2113.31
798.988	2190.31
799.238	2234.31
799.489	2147.31
799.739	2035.31
799.99	2062.31
800.24	2140.31
800.491	2228.31
800.741	2079.31
800.991	1989.31
801.242	2073.31
801.492	2098.31
801.743	2013.31
801.993	2252.31
802.244	2448.31
802.494	2075.31
802.744	2006.31
802.995	2053.31
803.245	2090.31
803.495	2028.31
803.746	1952.31
803.996	2035.31
804.246	2050.31
804.497	2057.31
804.747	1949.31
804.997	2009.31
805.248	1983.31
805.498	1935.31
805.748	1971.31
805.999	1862.31
806.249	1963.31
806.499	1940.31
806.75	1833.31
807	1888.31
807.25	2003.31
807.5	1945.31
807.751	1914.31
808.001	1970.31
808.251	1971.31
808.501	2044.31
808.752	2050.31
809.002	1974.31
809.252	1955.31
809.502	1912.31
809.752	1882.31
810.003	1843.31
810.253	1904.31
810.503	1943.31
810.753	1930.31
811.003	1969.31
811.254	1977.31
811.504	1909.31
811.754	1884.31
812.004	1887.31
812.254	2111.31
812.504	1936.31
812.754	1833.31
813.005	1911.31
813.255	1977.31
813.505	1882.31
813.755	1791.31
814.005	1860.31
814.255	1880.31
814.505	1836.31
814.755	1753.31
815.005	1767.31
815.255	1868.31
815.505	1823.31
815.756	1833.31
816.006	1829.31
816.256	1787.31
816.506	1756.31
816.756	1697.31
817.006	1728.31
817.256	1811.31
817.506	1851.31
817.756	1789.31
818.006	1778.31
818.256	1855.31
818.506	1832.31
818.756	1699.31
819.006	1722.31
819.256	1798.31
819.506	1731.31
819.756	1674.31
820.006	1776.31
820.255	1836.31
820.505	1824.31
820.755	1706.31
821.005	1707.31
821.255	1813.31
821.505	1770.31
821.755	1701.31
822.005	1778.31
822.255	1864.31
822.505	1762.31
822.755	1759.31
823.004	1647.31
823.254	1694.31
823.504	1766.31
823.754	1736.31
824.004	1658.31
824.254	1755.31
824.504	1749.31
824.753	1779.31
825.003	1773.31
825.253	1799.31
825.503	1677.31
825.753	1644.31
826.002	1723.31
826.252	1921.31
826.502	1724.31
826.752	1629.31
827.002	1639.31
827.251	1764.31
827.501	1695.31
827.751	1591.31
828.001	1612.31
828.25	1726.31
828.5	1595.31
828.75	1558.31
829	1637.31
829.249	1751.31
829.499	1582.31
829.749	1591.31
829.998	1648.31
830.248	1673.31
830.498	1548.31
830.748	1579.31
830.997	1617.31
831.247	1685.31
831.497	1678.31
831.746	1588.31
831.996	1701.31
832.246	1788.31
832.495	1777.31
832.745	1511.31
832.994	1546.31
833.244	1713.31
833.494	1604.31
833.743	1516.31
833.993	1552.31
834.243	1629.31
834.492	1624.31
834.742	1592.31
834.991	1566.31
835.241	1693.31
835.49	1535.31
835.74	1452.31
835.99	1531.31
836.239	1606.31
836.489	1633.31
836.738	1542.31
836.988	1424.31
837.237	1535.31
837.487	1636.31
837.736	1540.31
837.986	1509.31
838.235	1590.31
838.485	1543.31
838.734	1525.31
838.984	1569.31
839.233	1534.31
839.483	1436.31
839.732	1408.31
839.982	1471.31
840.231	1547.31
840.481	1533.31
840.73	1423.31
840.979	1465.31
841.229	1504.31
841.478	1498.31
841.728	1373.31
841.977	1318.31
842.227	1393.31
842.476	1356.31
842.725	1355.31
842.975	1397.31
843.224	1498.31
843.474	1520.31
843.723	1400.31
843.972	1406.31
844.222	1447.31
844.471	1505.31
844.72	1392.31
844.97	1381.31
845.219	1477.31
845.468	1455.31
845.718	1386.31
845.967	1417.31
846.216	1455.31
846.466	1506.31
846.715	1374.31
846.964	1362.31
847.214	1358.31
847.463	1336.31
847.712	1355.31
847.961	1325.31
848.211	1392.31
848.46	1390.31
848.709	1343.31
848.958	1318.31
849.208	1380.31
849.457	1336.31
849.706	1353.31
849.955	1329.31
850.205	1312.31
850.454	1428.31
850.703	1441.31
850.952	1403.31
851.201	1429.31
851.451	1365.31
851.7	1362.31
851.949	1253.31
852.198	1351.31
852.447	1296.31
852.696	1225.31
852.946	1258.31
853.195	1364.31
853.444	1399.31
853.693	1219.31
853.942	1177.31
854.191	1274.31
854.44	1309.31
854.689	1274.31
854.939	1210.31
855.188	1196.31
855.437	1217.31
855.686	1209.31
855.935	1265.31
856.184	1322.31
856.433	1336.31
856.682	1256.31
856.931	1223.31
857.18	1259.31
857.429	1195.31
857.678	1154.31
857.927	1217.31
858.176	1285.31
858.425	1183.31
858.674	1092.31
858.924	1186.31
859.173	1211.31
859.422	1230.31
859.671	1113.31
859.92	1163.31
860.169	1196.31
860.417	1245.31
860.666	1168.31
860.915	1127.31
861.164	1171.31
861.413	1144.31
861.662	1090.31
861.911	1131.31
862.16	1242.31
862.409	1209.31
862.658	1034.31
862.907	1088.31
863.156	1204.31
863.405	1195.31
863.654	1083.31
863.903	1044.31
864.151	1125.31
864.4	1163.31
864.649	1098.31
864.898	1161.31
865.147	1200.31
865.396	1208.31
865.645	1075.31
865.894	1127.31
866.142	1244.31
866.391	1125.31
866.64	1023.31
866.889	1137.31
867.138	1287.31
867.387	1174.31
867.635	1065.31
867.884	1139.31
868.133	1220.31
868.382	1128.31
868.631	1002.31
868.879	1014.31
869.128	1120.31
869.377	1114.31
869.626	1039.31
869.874	1035.31
870.123	1124.31
870.372	1095.31
870.621	965.31
870.869	1026.31
871.118	1124.31
871.367	1083.31
871.616	1002.31
871.864	1093.31
872.113	1108.31
872.362	1052.31
872.61	1039.31
872.859	1085.31
873.108	1128.31
873.357	1053.31
873.605	949.31
873.854	960.31
874.103	960.31
874.351	980.31
874.6	1002.31
874.848	1033.31
875.097	1069.31
875.346	1066.31
875.594	955.31
875.843	1059.31
876.092	1174.31
876.34	1059.31
876.589	961.31
876.837	867.31
877.086	949.31
877.335	1004.31
877.583	959.31
877.832	1012.31
878.08	1131.31
878.329	1023.31
878.578	921.31
878.826	944.31
879.075	1043.31
879.323	1039.31
879.572	946.31
879.82	1074.31
880.069	1006.31
880.317	990.31
880.566	867.31
880.814	972.31
881.063	1098.31
881.311	1020.31
881.56	1029.31
881.808	939.31
882.057	1002.31
882.305	960.31
882.554	958.31
882.802	870.31
883.051	915.31
883.299	913.31
883.548	868.31
883.796	948.31
884.045	953.31
884.293	899.31
884.541	797.31
884.79	797.31
885.038	872.31
885.287	891.31
885.535	906.31
885.783	947.31
886.032	909.31
886.28	860.31
886.529	812.31
886.777	861.31
887.025	988.31
887.274	868.31
887.522	810.31
887.77	831.31
888.019	851.31
888.267	831.31
888.516	764.31
888.764	790.31
889.012	868.31
889.261	866.31
889.509	780.31
889.757	815.31
890.005	857.31
890.254	775.31
890.502	803.31
890.75	1007.31
890.999	1026.31
891.247	901.31
891.495	873.31
891.743	844.31
891.992	981.31
892.24	860.31
892.488	732.31
892.737	772.31
892.985	871.31
893.233	862.31
893.481	786.31
893.729	745.31
893.978	912.31
894.226	950.31
894.474	787.31
894.722	747.31
894.97	805.31
895.219	807.31
895.467	801.31
895.715	811.31
895.963	804.31
896.211	749.31
896.46	655.31
896.708	789.31
896.956	868.31
897.204	938.31
897.452	848.31
897.7	754.31
897.948	843.31
898.197	777.31
898.445	719.31
898.693	733.31
898.941	795.31
899.189	806.31
899.437	765.31
899.685	848.31
899.933	780.31
900.181	768.31
900.43	691.31
900.678	716.31
900.926	767.31
901.174	740.31
901.422	689.31
901.67	726.31
901.918	808.31
902.166	776.31
902.414	603.31
902.662	638.31
902.91	763.31
903.158	728.31
903.406	675.31
903.654	699.31
903.902	737.31
904.15	690.31
904.398	575.31
904.646	682.31
904.894	788.31
905.142	790.31
905.39	713.31
905.638	642.31
905.886	669.31
906.134	650.31
906.382	650.31
906.63	619.31
906.878	711.31
907.126	687.31
907.374	625.31
907.622	628.31
907.869	734.31
908.117	731.31
908.365	657.31
908.613	629.31
908.861	646.31
909.109	605.31
909.357	572.31
909.605	642.31
909.853	722.31
910.1	656.31
910.348	515.31
910.596	549.31
910.844	706.31
911.092	759.31
911.34	653.31
911.588	663.31
911.835	696.31
912.083	671.31
912.331	668.31
912.579	699.31
912.827	839.31
913.075	705.31
913.322	575.31
913.57	595.31
913.818	716.31
914.066	670.31
914.313	563.31
914.561	624.31
914.809	667.31
915.057	597.31
915.305	592.31
915.552	573.31
915.8	662.31
916.048	605.31
916.296	533.31
916.543	632.31
916.791	687.31
917.039	646.31
917.286	496.31
917.534	539.31
917.782	655.31
918.03	576.31
918.277	469.31
918.525	452.31
918.773	576.31
919.02	579.31
919.268	522.31
919.516	551.31
919.763	567.31
920.011	575.31
920.259	468.31
920.506	545.31
920.754	650.31
921.002	649.31
921.249	597.31
921.497	541.31
921.745	564.31
921.992	599.31
922.24	470.31
922.487	569.31
922.735	728.31
922.983	649.31
923.23	566.31
923.478	525.31
923.725	601.31
923.973	606.31
924.221	554.31
924.468	601.31
924.716	587.31
924.963	559.31
925.211	505.31
925.458	565.31
925.706	663.31
925.953	710.31
926.201	509.31
926.448	483.31
926.696	588.31
926.944	526.31
927.191	472.31
927.439	506.31
927.686	539.31
927.934	562.31
928.181	435.31
928.429	449.31
928.676	528.31
928.923	450.31
929.171	414.31
929.418	568.31
929.666	625.31
929.913	590.31
930.161	395.31
930.408	425.31
930.656	500.31
930.903	550.31
931.151	413.31
931.398	450.31
931.645	578.31
931.893	481.31
932.14	441.31
932.388	459.31
932.635	605.31
932.882	633.31
933.13	511.31
933.377	450.31
933.625	526.31
933.872	451.31
934.119	397.31
934.367	423.31
934.614	411.31
934.861	425.31
935.109	441.31
935.356	473.31
935.603	512.31
935.851	444.31
936.098	383.31
936.345	495.31
936.593	514.31
936.84	459.31
937.087	329.31
937.335	388.31
937.582	475.31
937.829	494.31
938.077	445.31
938.324	435.31
938.571	515.31
938.818	425.31
939.066	363.31
939.313	343.31
939.56	479.31
939.807	472.31
940.055	342.31
940.302	378.31
940.549	552.31
940.796	471.31
941.044	399.31
941.291	433.31
941.538	581.31
941.785	464.31
942.033	397.31
942.28	471.31
942.527	506.31
942.774	477.31
943.021	316.31
943.269	356.31
943.516	464.31
943.763	472.31
944.01	397.31
944.257	479.31
944.504	539.31
944.752	495.31
944.999	423.31
945.246	357.31
945.493	452.31
945.74	441.31
945.987	364.31
946.234	434.31
946.482	509.31
946.729	386.31
946.976	327.31
947.223	362.31
947.47	505.31
947.717	464.31
947.964	481.31
948.211	427.31
948.458	504.31
948.705	425.31
948.952	335.31
949.2	400.31
949.447	496.31
949.694	484.31
949.941	341.31
950.188	323.31
950.435	350.31
950.682	376.31
950.929	266.31
951.176	315.31
951.423	461.31
951.67	441.31
951.917	402.31
952.164	388.31
952.411	451.31
952.658	512.31
952.905	353.31
953.152	284.31
953.399	408.31
953.646	408.31
953.893	299.31
954.14	325.31
954.387	378.31
954.634	376.31
954.881	314.31
955.128	345.31
955.375	352.31
955.622	355.31
955.869	349.31
956.115	343.31
956.362	423.31
956.609	392.31
956.856	296.31
957.103	297.31
957.35	401.31
957.597	408.31
957.844	348.31
958.091	325.31
958.338	390.31
958.585	357.31
958.831	191.31
959.078	255.31
959.325	419.31
959.572	313.31
959.819	221.31
960.066	201.31
960.313	314.31
960.559	289.31
960.806	171.31
961.053	239.31
961.3	411.31
961.547	419.31
961.794	217.31
962.04	349.31
962.287	364.31
962.534	263.31
962.781	243.31
963.028	317.31
963.274	411.31
963.521	321.31
963.768	253.31
964.015	287.31
964.262	439.31
964.508	276.31
964.755	182.31
965.002	217.31
965.249	268.31
965.495	218.31
965.742	181.31
965.989	205.31
966.236	327.31
966.482	249.31
966.729	213.31
966.976	205.31
967.222	272.31
967.469	256.31
967.716	188.31
967.963	197.31
968.209	281.31
968.456	247.31
968.703	140.31
968.949	251.31
969.196	420.31
969.443	407.31
969.689	193.31
969.936	170.31
970.183	257.31
970.429	196.31
970.676	163.31
970.923	252.31
971.169	299.31
971.416	213.31
971.663	181.31
971.909	245.31
972.156	301.31
972.402	303.31
972.649	219.31
972.896	250.31
973.142	265.31
973.389	284.31
973.635	192.31
973.882	305.31
974.129	357.31
974.375	226.31
974.622	141.31
974.868	175.31
975.115	267.31
975.361	220.31
975.608	170.31
975.855	290.31
976.101	320.31
976.348	233.31
976.594	184.31
976.841	240.31
977.087	244.31
977.334	267.31
977.58	140.31
977.827	129.31
978.073	278.31
978.32	262.31
978.566	143.31
978.813	196.31
979.059	226.31
979.306	225.31
979.552	123.31
979.799	202.31
980.045	201.31
980.292	194.31
980.538	123.31
980.785	125.31
981.031	154.31
981.278	143.31
981.524	98.31
981.771	245.31
982.017	369.31
982.263	279.31
982.51	139.31
982.756	205.31
983.003	256.31
983.249	203.31
983.495	128.31
983.742	130.31
983.988	192.31
984.235	207.31
984.481	103.31
984.727	116.31
984.974	251.31
985.22	220.31
985.467	170.31
985.713	163.31
985.959	275.31
986.206	243.31
986.452	147.31
986.698	193.31
986.945	202.31
987.191	241.31
987.437	240.31
987.684	192.31
987.93	356.31
988.176	245.31
988.423	64.31
988.669	157.31
988.915	320.31
989.162	181.31
989.408	53.31
989.654	108.31
989.901	156.31
990.147	175.31
990.393	170.31
990.639	223.31
990.886	249.31
991.132	288.31
991.378	227.31
991.625	330.31
991.871	309.31
992.117	242.31
992.363	182.31
992.61	196.31
992.856	299.31
993.102	181.31
993.348	111.31
993.594	132.31
993.841	169.31
994.087	305.31
994.333	155.31
994.579	155.31
994.826	199.31
995.072	207.31
995.318	11.31
995.564	68.31
995.81	200.31
996.057	155.31
996.303	45.31
996.549	74.31
996.795	166.31
997.041	152.31
997.287	123.31
997.534	112.31
997.78	171.31
998.026	182.31
998.272	70.31
998.518	47.31
998.764	217.31
999.01	232.31
999.256	137.31
999.503	93.31
999.749	113.31
999.995	66.31
1000.241	52.31
1000.487	126.31
1000.733	163.31
1000.979	139.31
1001.225	135.31
1001.471	179.31
1001.718	220.31
1001.964	245.31
1002.21	87.31
1002.456	110.31
1002.702	247.31
1002.948	163.31
1003.194	97.31
1003.44	76.31
1003.686	155.31
1003.932	112.31
1004.178	63.31
1004.424	130.31
1004.67	262.31
1004.916	230.31
1005.162	124.31
1005.408	93.31
1005.654	218.31
1005.9	68.31
1006.146	10.31
1006.392	91.31
1006.638	168.31
1006.884	117.31
1007.13	42.31
1007.376	28.31
1007.622	208.31
1007.868	240.31
1008.114	100.31
1008.36	151.31
1008.606	186.31
1008.852	184.31
1009.098	129.31
1009.344	175.31
1009.59	151.31
1009.836	14.31
1010.082	-43.69
1010.328	64.31
1010.574	130.31
1010.82	49.31
1011.065	-33.69
1011.311	-10.69
1011.557	110.31
1011.803	69.31
1012.049	19.31
1012.295	69.31
1012.541	115.31
1012.787	97.31
1013.033	-23.69
1013.278	-36.69
1013.524	101.31
1013.77	155.31
1014.016	58.31
1014.262	79.31
1014.508	190.31
1014.754	31.31
1015	-3.69
1015.245	141.31
1015.491	166.31
1015.737	153.31
1015.983	28.31
1016.229	-20.69
1016.475	85.31
1016.72	200.31
1016.966	222.31
1017.212	119.31
1017.458	183.31
1017.704	110.31
1017.949	-33.69
1018.195	145.31
1018.441	251.31
1018.687	193.31
1018.933	36.31
1019.178	41.31
1019.424	193.31
1019.67	223.31
1019.916	7.31
1020.161	42.31
1020.407	104.31
1020.653	56.31
1020.899	-31.69
1021.144	43.31
1021.39	132.31
1021.636	37.31
1021.882	-52.69
1022.127	51.31
1022.373	203.31
1022.619	147.31
1022.865	33.31
1023.11	33.31
1023.356	146.31
1023.602	76.31
1023.847	4.31
1024.093	59.31
1024.339	55.31
1024.584	39.31
1024.83	12.31
1025.076	27.31
1025.321	143.31
1025.567	103.31
1025.813	-11.69
1026.058	80.31
1026.304	147.31
1026.55	67.31
1026.795	27.31
1027.041	42.31
1027.287	99.31
1027.532	113.31
1027.778	86.31
1028.024	54.31
1028.269	95.31
1028.515	10.31
1028.76	-41.69
1029.006	26.31
1029.252	143.31
1029.497	77.31
1029.743	46.31
1029.989	-19.69
1030.234	118.31
1030.48	188.31
1030.725	-20.69
1030.971	23.31
1031.216	155.31
1031.462	88.31
1031.708	-55.69
1031.953	-24.69
1032.199	64.31
1032.444	73.31
1032.69	12.31
1032.935	7.31
1033.181	133.31
1033.426	28.31
1033.672	-109.69
1033.918	-60.69
1034.163	44.31
1034.409	24.31
1034.654	-8.69
1034.9	101.31
1035.145	121.31
1035.391	48.31
1035.636	-68.69
1035.882	15.31
1036.127	6.31
1036.373	-31.69
1036.618	-120.69
1036.864	-8.69
1037.109	105.31
1037.355	31.31
1037.6	-37.69
1037.845	-0.69
1038.091	186.31
1038.336	143.31
1038.582	140.31
1038.827	211.31
1039.073	72.31
1039.318	-18.69
1039.564	-95.69
1039.809	-30.69
1040.055	144.31
1040.3	125.31
1040.545	-37.69
1040.791	-30.69
1041.036	33.31
1041.282	57.31
1041.527	96.31
1041.772	-69.69
1042.018	0.31
1042.263	37.31
1042.509	-112.69
1042.754	-61.69
1042.999	53.31
1043.245	24.31
1043.49	-125.69
1043.736	-51.69
1043.981	26.31
1044.226	38.31
1044.472	22.31
1044.717	34.31
1044.962	120.31
1045.208	40.31
1045.453	-172.69
1045.698	-87.69
1045.944	101.31
1046.189	59.31
1046.434	-32.69
1046.68	-23.69
1046.925	146.31
1047.17	-2.69
1047.416	-169.69
1047.661	-70.69
1047.906	70.31
1048.152	58.31
1048.397	-31.69
1048.642	-36.69
1048.887	127.31
1049.133	125.31
1049.378	-36.69
1049.623	-58.69
1049.869	62.31
1050.114	-13.69
1050.359	-76.69
1050.604	2.31
1050.85	154.31
1051.095	9.31
1051.34	-67.69
1051.585	-1.69
1051.831	178.31
1052.076	24.31
1052.321	-186.69
1052.566	-64.69
1052.812	124.31
1053.057	25.31
1053.302	-55.69
1053.547	24.31
1053.792	89.31
1054.038	91.31
1054.283	-114.69
1054.528	-35.69
1054.773	43.31
1055.018	36.31
1055.264	-73.69
1055.509	-95.69
1055.754	31.31
1055.999	-29.69
1056.244	-126.69
1056.49	-52.69
1056.735	48.31
1056.98	-27.69
1057.225	-115.69
1057.47	81.31
1057.715	3.31
1057.96	-74.69
1058.206	-114.69
1058.451	-7.69
1058.696	116.31
1058.941	64.31
1059.186	-119.69
1059.431	-86.69
1059.676	108.31
1059.922	51.31
1060.167	140.31
1060.412	308.31
1060.657	82.31
1060.902	29.31
1061.147	-149.69
1061.392	-77.69
1061.637	82.31
1061.882	-2.69
1062.127	-159.69
1062.373	-143.69
1062.618	109.31
1062.863	133.31
1063.108	-52.69
1063.353	-116.69
1063.598	-13.69
1063.843	-15.69
1064.088	-104.69
1064.333	-109.69
1064.578	45.31
1064.823	65.31
1065.068	-170.69
1065.313	-97.69
1065.558	56.31
1065.803	43.31
1066.048	-141.69
1066.293	-127.69
1066.538	76.31
1066.783	12.31
1067.028	-162.69
1067.273	-137.69
1067.518	41.31
1067.763	-10.69
1068.008	-172.69
1068.253	-111.69
1068.498	61.31
1068.743	5.31
1068.988	-149.69
1069.233	-137.69
1069.478	74.31
1069.723	147.31
1069.968	-65.69
1070.213	-23.69
1070.458	72.31
1070.703	-14.69
1070.948	-184.69
1071.193	-79.69
1071.438	74.31
1071.683	91.31
1071.928	-33.69
1072.173	-61.69
1072.418	18.31
1072.663	-0.69
1072.908	-147.69
1073.152	-78.69
1073.397	92.31
1073.642	-14.69
1073.887	-76.69
1074.132	31.31
1074.377	27.31
1074.622	2.31
1074.867	-135.69
1075.112	-69.69
1075.357	132.31
1075.601	-15.69
1075.846	-85.69
1076.091	20.31
1076.336	82.31
1076.581	-59.69
1076.826	-171.69
1077.071	-63.69
1077.315	182.31
1077.56	105.31
1077.805	-119.69
1078.05	-83.69
1078.295	-3.69
1078.54	-40.69
1078.785	-160.69
1079.029	-104.69
1079.274	60.31
1079.519	-59.69
1079.764	-165.69
1080.009	-50.69
1080.253	28.31
1080.498	-53.69
1080.743	-219.69
1080.988	-71.69
1081.233	149.31
1081.478	76.31
1081.722	-119.69
1081.967	-10.69
1082.212	133.31
1082.457	26.31
1082.701	-98.69
1082.946	-61.69
1083.191	65.31
1083.436	-54.69
1083.681	-188.69
1083.925	-90.69
1084.17	8.31
1084.415	20.31
1084.66	-178.69
1084.904	-89.69
1085.149	1.31
1085.394	-35.69
1085.639	-207.69
1085.883	-98.69
1086.128	137.31
1086.373	131.31
1086.617	-93.69
1086.862	-148.69
1087.107	-21.69
1087.352	-68.69
1087.596	-150.69
1087.841	-9.69
1088.086	30.31
1088.33	0.31
1088.575	-245.69
1088.82	-104.69
1089.064	67.31
1089.309	-87.69
1089.554	-194.69
1089.798	-158.69
1090.043	39.31
1090.288	-9.69
1090.533	-197.69
1090.777	-110.69
1091.022	37.31
1091.266	52.31
1091.511	-113.69
1091.756	-41.69
1092	100.31
1092.245	69.31
1092.49	-152.69
1092.734	-96.69
1092.979	83.31
1093.224	-35.69
1093.468	-158.69
1093.713	-88.69
1093.957	22.31
1094.202	-34.69
1094.447	-215.69
1094.691	-88.69
1094.936	54.31
1095.181	7.31
1095.425	-165.69
1095.67	-130.69
1095.914	20.31
1096.159	-5.69
1096.403	-151.69
1096.648	-69.69
1096.893	35.31
1097.137	-83.69
1097.382	-235.69
1097.626	-159.69
1097.871	14.31
1098.115	-34.69
1098.36	-198.69
1098.605	-110.69
1098.849	-43.69
1099.094	-126.69
1099.338	-215.69
1099.583	-114.69
1099.827	123.31
1100.072	20.31
1100.316	-160.69
1100.561	-98.69
1100.805	63.31
1101.05	24.31
1101.294	-177.69
1101.539	-162.69
1101.783	-6.69
1102.028	4.31
1102.273	-147.69
1102.517	-78.69
1102.761	52.31
1103.006	-54.69
1103.25	-264.69
1103.495	-164.69
1103.739	35.31
1103.984	99.31
1104.228	-102.69
1104.473	-30.69
1104.717	33.31
1104.962	-0.69
1105.206	-127.69
1105.451	-144.69
1105.695	19.31
1105.94	8.31
1106.184	-152.69
1106.429	-94.69
1106.673	18.31
1106.917	65.31
1107.162	-150.69
1107.406	-22.69
1107.651	125.31
1107.895	-86.69
1108.14	-190.69
1108.384	-108.69
1108.628	109.31
1108.873	82.31
1109.117	-157.69
1109.362	-118.69
1109.606	-30.69
1109.85	-30.69
1110.095	-174.69
1110.339	-99.69
1110.584	93.31
1110.828	31.31
1111.072	-91.69
1111.317	-118.69
1111.561	-27.69
1111.806	-38.69
1112.05	-180.69
1112.294	-83.69
1112.539	19.31
1112.783	-11.69
1113.027	-126.69
1113.272	-118.69
1113.516	-26.69
1113.76	-59.69
1114.005	-158.69
1114.249	-82.69
1114.493	68.31
1114.738	89.31
1114.982	-52.69
1115.226	-91.69
1115.471	-10.69
1115.715	-24.69
1115.959	-188.69
1116.204	-167.69
1116.448	-14.69
1116.692	-112.69
1116.937	-182.69
1117.181	-29.69
1117.425	-25.69
1117.67	-84.69
1117.914	-158.69
1118.158	-93.69
1118.402	141.31
1118.647	61.31
1118.891	-87.69
1119.135	-33.69
1119.38	100.31
1119.624	-1.69
1119.868	-151.69
1120.112	-156.69
1120.357	-59.69
1120.601	-119.69
1120.845	-220.69
1121.089	-150.69
1121.334	31.31
