Data from HR4C21111__10__09-41-35-460.txt Node

Date: Mon Feb 22 09:41:35 IST 2021
User: Kapil
Spectrometer: HR4C2111
Trigger mode: 4
Integration Time (sec): 2.300000E0
Scans to average: 1
Electric dark correction enabled: true
Nonlinearity correction enabled: false
Boxcar width: 0
XAxis mode: Wavelengths
Number of Pixels in Spectrum: 3648
>>>>>Begin Spectral Data<<<<<
189.472	-454.31
189.745	-454.31
190.017	-454.31
190.289	-447.31
190.561	-295.31
190.834	-27.31
191.106	-112.31
191.378	20.69
191.65	-0.31
191.923	-135.31
192.195	-99.31
192.467	134.69
192.739	125.69
193.011	-31.31
193.284	58.69
193.556	157.69
193.828	-1.31
194.1	-90.31
194.372	-104.31
194.644	56.69
194.916	69.69
195.188	-143.31
195.46	-75.31
195.732	61.69
196.004	-23.31
196.276	-129.31
196.548	-77.31
196.82	70.69
197.092	47.69
197.364	-122.31
197.636	-87.31
197.908	18.69
198.18	-53.31
198.452	-103.31
198.724	-50.31
198.996	41.69
199.268	80.69
199.54	-27.31
199.811	-110.31
200.083	103.69
200.355	26.69
200.627	-183.31
200.899	-65.31
201.171	65.69
201.442	-44.31
201.714	-175.31
201.986	-92.31
202.258	71.69
202.529	122.69
202.801	5.69
203.073	86.69
203.345	194.69
203.616	12.69
203.888	-144.31
204.16	-160.31
204.431	70.69
204.703	-11.31
204.974	-141.31
205.246	-8.31
205.518	185.69
205.789	3.69
206.061	-124.31
206.332	-102.31
206.604	4.69
206.876	79.69
207.147	118.69
207.419	2.69
207.69	127.69
207.962	-15.31
208.233	-163.31
208.505	24.69
208.776	183.69
209.047	77.69
209.319	-128.31
209.59	-85.31
209.862	134.69
210.133	39.69
210.404	-159.31
210.676	-108.31
210.947	89.69
211.219	69.69
211.49	-112.31
211.761	-51.31
212.033	36.69
212.304	-32.31
212.575	-189.31
212.846	-83.31
213.118	16.69
213.389	-53.31
213.66	-103.31
213.931	-49.31
214.203	34.69
214.474	-27.31
214.745	-127.31
215.016	133.69
215.287	438.69
215.559	57.69
215.83	-110.31
216.101	-60.31
216.372	-1.31
216.643	75.69
216.914	11.69
217.185	-75.31
217.456	143.69
217.727	12.69
217.998	-144.31
218.269	-53.31
218.54	47.69
218.811	-0.31
219.082	-97.31
219.353	-84.31
219.624	-5.31
219.895	-23.31
220.166	-123.31
220.437	-114.31
220.708	102.69
220.979	-15.31
221.25	-155.31
221.521	-103.31
221.792	50.69
222.063	96.69
222.334	24.69
222.604	148.69
222.875	168.69
223.146	105.69
223.417	-160.31
223.688	-30.31
223.958	118.69
224.229	-57.31
224.5	-187.31
224.771	-70.31
225.041	89.69
225.312	44.69
225.583	-107.31
225.854	-63.31
226.124	76.69
226.395	-19.31
226.666	-126.31
226.936	-102.31
227.207	59.69
227.478	-49.31
227.748	-98.31
228.019	49.69
228.289	243.69
228.56	-33.31
228.831	-43.31
229.101	47.69
229.372	58.69
229.642	-23.31
229.913	-144.31
230.183	-125.31
230.454	-1.31
230.724	11.69
230.995	-95.31
231.265	-66.31
231.536	75.69
231.806	58.69
232.076	-105.31
232.347	-104.31
232.617	42.69
232.888	42.69
233.158	-54.31
233.428	-116.31
233.699	-4.31
233.969	-54.31
234.239	-164.31
234.51	-91.31
234.78	52.69
235.05	-5.31
235.321	-117.31
235.591	-82.31
235.861	22.69
236.131	-60.31
236.402	-176.31
236.672	-90.31
236.942	31.69
237.212	27.69
237.483	-81.31
237.753	7.69
238.023	173.69
238.293	32.69
238.563	-81.31
238.833	-100.31
239.103	74.69
239.374	-21.31
239.644	-149.31
239.914	-51.31
240.184	122.69
240.454	0.69
240.724	-154.31
240.994	-53.31
241.264	32.69
241.534	60.69
241.804	-15.31
242.074	-84.31
242.344	-22.31
242.614	-60.31
242.884	-186.31
243.154	-125.31
243.424	39.69
243.694	78.69
243.964	-76.31
244.234	-56.31
244.503	123.69
244.773	17.69
245.043	-213.31
245.313	-132.31
245.583	149.69
245.853	114.69
246.123	-164.31
246.392	-111.31
246.662	0.69
246.932	-28.31
247.202	-176.31
247.471	-63.31
247.741	267.69
248.011	131.69
248.281	-138.31
248.55	-69.31
248.82	80.69
249.09	10.69
249.359	-85.31
249.629	-65.31
249.899	63.69
250.168	53.69
250.438	-39.31
250.708	-103.31
250.977	87.69
251.247	63.69
251.516	-109.31
251.786	-64.31
252.055	135.69
252.325	23.69
252.595	-102.31
252.864	-69.31
253.134	51.69
253.403	-9.31
253.673	-154.31
253.942	-93.31
254.212	48.69
254.481	-2.31
254.75	-143.31
255.02	-98.31
255.289	70.69
255.559	7.69
255.828	-113.31
256.097	-36.31
256.367	34.69
256.636	-58.31
256.906	-155.31
257.175	-12.31
257.444	244.69
257.714	66.69
257.983	-73.31
258.252	-34.31
258.521	12.69
258.791	45.69
259.06	-108.31
259.329	-46.31
259.598	68.69
259.868	-17.31
260.137	-125.31
260.406	0.69
260.675	87.69
260.944	22.69
261.214	-129.31
261.483	-51.31
261.752	181.69
262.021	23.69
262.29	-166.31
262.559	-116.31
262.828	26.69
263.097	-34.31
263.366	-186.31
263.635	-75.31
263.905	135.69
264.174	13.69
264.443	-207.31
264.712	-108.31
264.981	44.69
265.25	-36.31
265.519	-135.31
265.788	-135.31
266.057	32.69
266.325	60.69
266.594	-34.31
266.863	-105.31
267.132	36.69
267.401	1.69
267.67	-201.31
267.939	-138.31
268.208	52.69
268.477	75.69
268.745	-124.31
269.014	-94.31
269.283	138.69
269.552	43.69
269.821	-117.31
270.089	-7.31
270.358	16.69
270.627	-26.31
270.896	-131.31
271.164	-157.31
271.433	27.69
271.702	98.69
271.971	-140.31
272.239	-124.31
272.508	37.69
272.777	-29.31
273.045	-8.31
273.314	-25.31
273.583	119.69
273.851	-1.31
274.12	-142.31
274.388	-120.31
274.657	3.69
274.926	-8.31
275.194	-147.31
275.463	-65.31
275.731	18.69
276	181.69
276.268	391.69
276.537	-75.31
276.805	32.69
277.074	47.69
277.342	-164.31
277.611	-100.31
277.879	112.69
278.148	31.69
278.416	-126.31
278.684	-106.31
278.953	-10.31
279.221	-24.31
279.49	-183.31
279.758	-91.31
280.026	0.69
280.295	5.69
280.563	-120.31
280.831	934.69
281.1	2260.69
281.368	206.69
281.636	-101.31
281.904	-118.31
282.173	-21.31
282.441	-54.31
282.709	-87.31
282.977	42.69
283.246	53.69
283.514	-16.31
283.782	-68.31
284.05	19.69
284.318	63.69
284.587	-12.31
284.855	-100.31
285.123	-32.31
285.391	75.69
285.659	57.69
285.927	-137.31
286.195	-56.31
286.463	56.69
286.732	-4.31
287	-109.31
287.268	-27.31
287.536	38.69
287.804	-30.31
288.072	-123.31
288.34	-74.31
288.608	72.69
288.876	-18.31
289.144	-124.31
289.412	-21.31
289.68	69.69
289.948	-23.31
290.215	-113.31
290.483	-81.31
290.751	96.69
291.019	95.69
291.287	-158.31
291.555	-108.31
291.823	31.69
292.091	-21.31
292.358	-81.31
292.626	-24.31
292.894	88.69
293.162	46.69
293.43	-113.31
293.697	-79.31
293.965	72.69
294.233	-9.31
294.501	-153.31
294.768	-60.31
295.036	74.69
295.304	31.69
295.572	-135.31
295.839	-102.31
296.107	106.69
296.375	10.69
296.642	-132.31
296.91	-127.31
297.178	49.69
297.445	167.69
297.713	91.69
297.98	-66.31
298.248	-17.31
298.516	-34.31
298.783	-104.31
299.051	-97.31
299.318	24.69
299.586	-19.31
299.853	-88.31
300.121	-87.31
300.388	41.69
300.656	-6.31
300.923	-132.31
301.191	-37.31
301.458	62.69
301.726	-8.31
301.993	-134.31
302.26	-77.31
302.528	52.69
302.795	11.69
303.063	-69.31
303.33	-59.31
303.597	26.69
303.865	31.69
304.132	-107.31
304.399	-108.31
304.667	-11.31
304.934	15.69
305.201	-112.31
305.469	-24.31
305.736	56.69
306.003	48.69
306.27	-51.31
306.538	-83.31
306.805	13.69
307.072	-27.31
307.339	-88.31
307.606	-49.31
307.874	162.69
308.141	61.69
308.408	-120.31
308.675	-105.31
308.942	-39.31
309.209	-68.31
309.477	-135.31
309.744	-92.31
310.011	24.69
310.278	38.69
310.545	-31.31
310.812	-36.31
311.079	145.69
311.346	194.69
311.613	53.69
311.88	-28.31
312.147	-53.31
312.414	-22.31
312.681	-112.31
312.948	-29.31
313.215	128.69
313.482	102.69
313.749	-79.31
314.016	-169.31
314.283	-48.31
314.55	48.69
314.817	-107.31
315.083	-124.31
315.35	-79.31
315.617	-130.31
315.884	-132.31
316.151	72.69
316.418	168.69
316.684	-28.31
316.951	-180.31
317.218	-106.31
317.485	-2.31
317.752	-52.31
318.018	-108.31
318.285	2.69
318.552	29.69
318.819	-45.31
319.085	-140.31
319.352	-53.31
319.619	49.69
319.885	-14.31
320.152	-181.31
320.419	-97.31
320.685	38.69
320.952	-24.31
321.219	-84.31
321.485	62.69
321.752	13.69
322.019	-56.31
322.285	13.69
322.552	-22.31
322.818	125.69
323.085	-18.31
323.351	-123.31
323.618	-21.31
323.884	44.69
324.151	-49.31
324.417	-19.31
324.684	-64.31
324.95	-41.31
325.217	-136.31
325.483	-174.31
325.75	-18.31
326.016	7.69
326.283	-22.31
326.549	-179.31
326.815	-64.31
327.082	107.69
327.348	25.69
327.615	-95.31
327.881	-16.31
328.147	119.69
328.414	123.69
328.68	10.69
328.946	-43.31
329.212	28.69
329.479	1.69
329.745	-117.31
330.011	-101.31
330.278	11.69
330.544	-36.31
330.81	-38.31
331.076	-37.31
331.342	-25.31
331.609	-29.31
331.875	-79.31
332.141	-89.31
332.407	10.69
332.673	-5.31
332.94	-14.31
333.206	-38.31
333.472	51.69
333.738	75.69
334.004	-118.31
334.27	-9.31
334.536	14.69
334.802	-29.31
335.068	-78.31
335.334	9.69
335.6	38.69
335.866	-15.31
336.132	-155.31
336.398	-75.31
336.664	-7.31
336.93	-23.31
337.196	-75.31
337.462	-22.31
337.728	25.69
337.994	-23.31
338.26	-99.31
338.526	-44.31
338.792	-42.31
339.058	-35.31
339.324	-147.31
339.59	-7.31
339.856	56.69
340.121	-55.31
340.387	-122.31
340.653	86.69
340.919	167.69
341.185	64.69
341.45	-68.31
341.716	26.69
341.982	107.69
342.248	-38.31
342.514	-87.31
342.779	-15.31
343.045	23.69
343.311	-5.31
343.576	-79.31
343.842	-37.31
344.108	123.69
344.374	20.69
344.639	-111.31
344.905	-80.31
345.171	58.69
345.436	-50.31
345.702	-111.31
345.967	59.69
346.233	81.69
346.499	13.69
346.764	-170.31
347.03	-71.31
347.295	-34.31
347.561	12.69
347.826	-32.31
348.092	-105.31
348.357	-18.31
348.623	-27.31
348.888	-123.31
349.154	-83.31
349.419	51.69
349.685	7.69
349.95	-71.31
350.216	-44.31
350.481	32.69
350.747	-48.31
351.012	-163.31
351.277	-82.31
351.543	47.69
351.808	-16.31
352.074	-170.31
352.339	-115.31
352.604	41.69
352.87	8.69
353.135	-104.31
353.4	-45.31
353.666	12.69
353.931	-8.31
354.196	-131.31
354.461	-123.31
354.727	44.69
354.992	21.69
355.257	-111.31
355.522	-15.31
355.788	11.69
356.053	85.69
356.318	-68.31
356.583	-82.31
356.848	120.69
357.113	229.69
357.379	-41.31
357.644	-58.31
357.909	125.69
358.174	140.69
358.439	-98.31
358.704	-30.31
358.969	88.69
359.234	94.69
359.499	-80.31
359.765	-8.31
360.03	126.69
360.295	128.69
360.56	-45.31
360.825	14.69
361.09	220.69
361.355	38.69
361.62	-6.31
361.885	31.69
362.15	24.69
362.415	51.69
362.679	-1.31
362.944	122.69
363.209	165.69
363.474	165.69
363.739	101.69
364.004	12.69
364.269	88.69
364.534	134.69
364.799	89.69
365.063	112.69
365.328	213.69
365.593	195.69
365.858	81.69
366.123	86.69
366.387	214.69
366.652	147.69
366.917	57.69
367.182	132.69
367.447	274.69
367.711	228.69
367.976	151.69
368.241	218.69
368.505	301.69
368.77	223.69
369.035	195.69
369.299	239.69
369.564	274.69
369.829	188.69
370.093	169.69
370.358	180.69
370.623	290.69
370.887	317.69
371.152	186.69
371.416	249.69
371.681	313.69
371.946	219.69
372.21	200.69
372.475	332.69
372.739	365.69
373.004	327.69
373.268	287.69
373.533	350.69
373.797	425.69
374.062	420.69
374.326	266.69
374.591	375.69
374.855	469.69
375.12	405.69
375.384	276.69
375.648	368.69
375.913	508.69
376.177	530.69
376.442	400.69
376.706	430.69
376.97	566.69
377.235	530.69
377.499	487.69
377.763	498.69
378.028	510.69
378.292	560.69
378.556	485.69
378.821	459.69
379.085	562.69
379.349	519.69
379.614	475.69
379.878	594.69
380.142	788.69
380.406	723.69
380.671	714.69
380.935	863.69
381.199	984.69
381.463	874.69
381.727	815.69
381.991	781.69
382.256	857.69
382.52	825.69
382.784	845.69
383.048	986.69
383.312	937.69
383.576	898.69
383.84	829.69
384.104	885.69
384.369	995.69
384.633	931.69
384.897	837.69
385.161	974.69
385.425	1124.69
385.689	1050.69
385.953	1025.69
386.217	1017.69
386.481	1111.69
386.745	1187.69
387.009	1167.69
387.273	1102.69
387.537	1155.69
387.801	1211.69
388.064	1159.69
388.328	1287.69
388.592	1366.69
388.856	1308.69
389.12	1251.69
389.384	1355.69
389.648	1385.69
389.912	1456.69
390.176	1477.69
390.439	1580.69
390.703	1434.69
390.967	1428.69
391.231	1361.69
391.495	1454.69
391.758	1560.69
392.022	1565.69
392.286	1433.69
392.55	1479.69
392.813	1630.69
393.077	1697.69
393.341	1606.69
393.605	1703.69
393.868	1709.69
394.132	1694.69
394.396	1656.69
394.659	1796.69
394.923	1754.69
395.187	1729.69
395.45	1744.69
395.714	1803.69
395.978	1868.69
396.241	1881.69
396.505	1836.69
396.768	1919.69
397.032	1954.69
397.295	1978.69
397.559	1949.69
397.823	1910.69
398.086	2076.69
398.35	2026.69
398.613	1941.69
398.877	2048.69
399.14	2221.69
399.404	2262.69
399.667	2154.69
399.931	2118.69
400.194	2206.69
400.457	2169.69
400.721	2191.69
400.984	2316.69
401.248	2263.69
401.511	2263.69
401.775	2173.69
402.038	2224.69
402.301	2458.69
402.565	2430.69
402.828	2246.69
403.091	2334.69
403.355	2491.69
403.618	2492.69
403.881	2456.69
404.145	2515.69
404.408	2572.69
404.671	2516.69
404.934	2553.69
405.198	2630.69
405.461	2660.69
405.724	2699.69
405.987	2699.69
406.251	2765.69
406.514	2872.69
406.777	2726.69
407.04	2630.69
407.303	2625.69
407.567	2802.69
407.83	2871.69
408.093	2709.69
408.356	2818.69
408.619	2926.69
408.882	3005.69
409.145	2912.69
409.408	2852.69
409.672	2980.69
409.935	2917.69
410.198	2803.69
410.461	2874.69
410.724	3126.69
410.987	3030.69
411.25	2825.69
411.513	2972.69
411.776	3071.69
412.039	2952.69
412.302	2938.69
412.565	2994.69
412.828	3034.69
413.091	3035.69
413.354	2939.69
413.617	2970.69
413.879	3024.69
414.142	3033.69
414.405	2894.69
414.668	2945.69
414.931	3076.69
415.194	3028.69
415.457	2892.69
415.72	2986.69
415.983	3010.69
416.245	3075.69
416.508	2944.69
416.771	2869.69
417.034	3050.69
417.297	3022.69
417.559	2954.69
417.822	2970.69
418.085	3072.69
418.348	3040.69
418.61	2927.69
418.873	2927.69
419.136	2944.69
419.399	2935.69
419.661	3003.69
419.924	2954.69
420.187	3044.69
420.449	3018.69
420.712	2979.69
420.975	2969.69
421.237	3049.69
421.5	3103.69
421.762	3184.69
422.025	3138.69
422.288	3197.69
422.55	3048.69
422.813	2967.69
423.075	3090.69
423.338	3184.69
423.601	3234.69
423.863	3162.69
424.126	3251.69
424.388	3348.69
424.651	3290.69
424.913	3268.69
425.176	3303.69
425.438	3276.69
425.701	3274.69
425.963	3195.69
426.225	3214.69
426.488	3307.69
426.75	3323.69
427.013	3283.69
427.275	3340.69
427.538	3394.69
427.8	3377.69
428.062	3292.69
428.325	3345.69
428.587	3426.69
428.849	3412.69
429.112	3417.69
429.374	3384.69
429.636	3429.69
429.899	3500.69
430.161	3446.69
430.423	3482.69
430.686	3631.69
430.948	3615.69
431.21	3430.69
431.472	3389.69
431.735	3540.69
431.997	3592.69
432.259	3529.69
432.521	3412.69
432.783	3569.69
433.046	3554.69
433.308	3424.69
433.57	3509.69
433.832	3753.69
434.094	3559.69
434.356	3428.69
434.618	3513.69
434.881	3636.69
435.143	3723.69
435.405	3707.69
435.667	3666.69
435.929	3701.69
436.191	3700.69
436.453	3579.69
436.715	3663.69
436.977	3814.69
437.239	3882.69
437.501	3788.69
437.763	3747.69
438.025	3868.69
438.287	3822.69
438.549	3771.69
438.811	3741.69
439.073	3801.69
439.335	3818.69
439.597	3734.69
439.859	3699.69
440.121	3851.69
440.383	3763.69
440.645	3746.69
440.907	3804.69
441.168	3869.69
441.43	3839.69
441.692	3803.69
441.954	3829.69
442.216	3891.69
442.478	3847.69
442.74	3732.69
443.001	3871.69
443.263	4106.69
443.525	3886.69
443.787	3721.69
444.048	3751.69
444.31	3828.69
444.572	3868.69
444.834	3865.69
445.095	3876.69
445.357	3995.69
445.619	3831.69
445.881	3739.69
446.142	3820.69
446.404	3812.69
446.666	3861.69
446.927	3843.69
447.189	3959.69
447.451	4015.69
447.712	3865.69
447.974	3711.69
448.235	3756.69
448.497	3861.69
448.759	3799.69
449.02	3796.69
449.282	3752.69
449.543	3896.69
449.805	3970.69
450.066	3714.69
450.328	3816.69
450.59	4009.69
450.851	3822.69
451.113	3712.69
451.374	3710.69
451.636	3952.69
451.897	3976.69
452.158	3875.69
452.42	3963.69
452.681	4006.69
452.943	3808.69
453.204	3811.69
453.466	3829.69
453.727	3812.69
453.988	3871.69
454.25	3797.69
454.511	3803.69
454.773	3894.69
455.034	4079.69
455.295	3799.69
455.557	3886.69
455.818	3929.69
456.079	3871.69
456.341	3973.69
456.602	4086.69
456.863	4073.69
457.124	3936.69
457.386	3850.69
457.647	3866.69
457.908	3889.69
458.169	4039.69
458.431	3902.69
458.692	3938.69
458.953	4013.69
459.214	4011.69
459.476	4118.69
459.737	4250.69
459.998	4242.69
460.259	4112.69
460.52	4073.69
460.781	4199.69
461.043	4340.69
461.304	4199.69
461.565	4052.69
461.826	4109.69
462.087	4309.69
462.348	4448.69
462.609	4378.69
462.87	4386.69
463.131	4287.69
463.392	4503.69
463.653	4504.69
463.914	4491.69
464.175	4473.69
464.436	4519.69
464.697	4538.69
464.958	4407.69
465.219	4481.69
465.48	4578.69
465.741	4590.69
466.002	4496.69
466.263	4712.69
466.524	4707.69
466.785	4564.69
467.046	4663.69
467.307	4828.69
467.568	4886.69
467.829	4838.69
468.089	4843.69
468.35	4918.69
468.611	4849.69
468.872	4750.69
469.133	4919.69
469.394	5162.69
469.655	5239.69
469.915	5067.69
470.176	4947.69
470.437	5027.69
470.698	5207.69
470.958	5212.69
471.219	5198.69
471.48	5349.69
471.741	5479.69
472.001	5420.69
472.262	5391.69
472.523	5592.69
472.784	5704.69
473.044	5623.69
473.305	5681.69
473.566	5711.69
473.826	5791.69
474.087	5731.69
474.348	5840.69
474.608	5991.69
474.869	5984.69
475.129	5930.69
475.39	5993.69
475.651	6138.69
475.911	6313.69
476.172	6187.69
476.432	6288.69
476.693	6484.69
476.953	6351.69
477.214	6359.69
477.475	6430.69
477.735	6515.69
477.996	6651.69
478.256	6493.69
478.517	6604.69
478.777	6777.69
479.038	6856.69
479.298	6906.69
479.558	6924.69
479.819	7047.69
480.079	7022.69
480.34	7068.69
480.6	7054.69
480.861	7195.69
481.121	7285.69
481.381	7253.69
481.642	7314.69
481.902	7349.69
482.162	7351.69
482.423	7354.69
482.683	7467.69
482.943	7550.69
483.204	7563.69
483.464	7588.69
483.724	7629.69
483.985	7676.69
484.245	7781.69
484.505	7718.69
484.765	7780.69
485.026	7906.69
485.286	7986.69
485.546	7951.69
485.806	7951.69
486.067	8011.69
486.327	7999.69
486.587	7968.69
486.847	8039.69
487.107	8174.69
487.368	8207.69
487.628	8173.69
487.888	8224.69
488.148	8346.69
488.408	8241.69
488.668	8271.69
488.928	8320.69
489.188	8358.69
489.449	8397.69
489.709	8307.69
489.969	8371.69
490.229	8530.69
490.489	8553.69
490.749	8436.69
491.009	8428.69
491.269	8503.69
491.529	8495.69
491.789	8454.69
492.049	8553.69
492.309	8668.69
492.569	8592.69
492.829	8579.69
493.089	8550.69
493.349	8782.69
493.609	8702.69
493.869	8578.69
494.129	8683.69
494.389	8725.69
494.648	8600.69
494.908	8533.69
495.168	8655.69
495.428	8817.69
495.688	8743.69
495.948	8562.69
496.208	8598.69
496.467	8683.69
496.727	8674.69
496.987	8691.69
497.247	8727.69
497.507	8783.69
497.767	8800.69
498.026	8580.69
498.286	8759.69
498.546	8947.69
498.806	8795.69
499.065	8849.69
499.325	8793.69
499.585	8803.69
499.845	8770.69
500.104	8816.69
500.364	8891.69
500.624	8878.69
500.883	8802.69
501.143	8824.69
501.403	8856.69
501.662	8944.69
501.922	8878.69
502.182	8718.69
502.441	8704.69
502.701	8718.69
502.96	8870.69
503.22	8884.69
503.48	8800.69
503.739	8880.69
503.999	8838.69
504.258	8752.69
504.518	8831.69
504.777	8863.69
505.037	8851.69
505.296	8772.69
505.556	8759.69
505.815	8931.69
506.075	9007.69
506.334	8912.69
506.594	8743.69
506.853	8788.69
507.113	8809.69
507.372	8674.69
507.632	8725.69
507.891	8864.69
508.151	8896.69
508.41	8722.69
508.669	8758.69
508.929	8869.69
509.188	8783.69
509.447	8754.69
509.707	8698.69
509.966	8770.69
510.226	8844.69
510.485	8819.69
510.744	8832.69
511.004	8874.69
511.263	8736.69
511.522	8719.69
511.781	8707.69
512.041	8862.69
512.3	8802.69
512.559	8854.69
512.818	8924.69
513.078	8895.69
513.337	8828.69
513.596	8765.69
513.855	8803.69
514.115	8909.69
514.374	8873.69
514.633	8787.69
514.892	8805.69
515.151	8915.69
515.41	8992.69
515.67	8866.69
515.929	8827.69
516.188	8897.69
516.447	8874.69
516.706	8784.69
516.965	8851.69
517.224	8931.69
517.483	8880.69
517.743	8814.69
518.002	8908.69
518.261	8921.69
518.52	8904.69
518.779	8843.69
519.038	8807.69
519.297	8871.69
519.556	8901.69
519.815	8795.69
520.074	8826.69
520.333	8961.69
520.592	8914.69
520.851	8727.69
521.11	8856.69
521.369	8964.69
521.628	8824.69
521.887	8831.69
522.145	8852.69
522.404	8871.69
522.663	8867.69
522.922	8791.69
523.181	8811.69
523.44	8957.69
523.699	8960.69
523.958	8777.69
524.217	8785.69
524.475	8829.69
524.734	8812.69
524.993	8802.69
525.252	8793.69
525.511	8777.69
525.769	8825.69
526.028	8764.69
526.287	8808.69
526.546	8882.69
526.805	8802.69
527.063	8723.69
527.322	8763.69
527.581	8801.69
527.839	8752.69
528.098	8741.69
528.357	8753.69
528.616	8794.69
528.874	8785.69
529.133	8721.69
529.392	8797.69
529.65	8799.69
529.909	8732.69
530.168	8646.69
530.426	8679.69
530.685	8815.69
530.943	8760.69
531.202	8613.69
531.461	8651.69
531.719	8814.69
531.978	8736.69
532.236	8619.69
532.495	8717.69
532.753	8841.69
533.012	8753.69
533.271	8639.69
533.529	8644.69
533.788	8754.69
534.046	8622.69
534.305	8602.69
534.563	8889.69
534.822	8951.69
535.08	8886.69
535.338	8746.69
535.597	8718.69
535.855	8825.69
536.114	8767.69
536.372	8710.69
536.631	8833.69
536.889	8909.69
537.147	8834.69
537.406	8667.69
537.664	8767.69
537.923	8848.69
538.181	8931.69
538.439	8764.69
538.698	8882.69
538.956	8856.69
539.214	8813.69
539.473	8808.69
539.731	8874.69
539.989	8984.69
540.248	8889.69
540.506	8842.69
540.764	8849.69
541.022	8879.69
541.281	8964.69
541.539	8887.69
541.797	8903.69
542.055	9018.69
542.314	9075.69
542.572	9061.69
542.83	8966.69
543.088	9068.69
543.346	9061.69
543.604	8978.69
543.863	9052.69
544.121	9250.69
544.379	9220.69
544.637	9126.69
544.895	9237.69
545.153	9353.69
545.411	9192.69
545.67	9089.69
545.928	9225.69
546.186	9351.69
546.444	9359.69
546.702	9318.69
546.96	9391.69
547.218	9422.69
547.476	9363.69
547.734	9327.69
547.992	9421.69
548.25	9584.69
548.508	9567.69
548.766	9584.69
549.024	9584.69
549.282	9612.69
549.54	9742.69
549.798	9714.69
550.056	9679.69
550.314	9810.69
550.572	9797.69
550.83	9690.69
551.088	9818.69
551.346	9967.69
551.603	9960.69
551.861	9902.69
552.119	9977.69
552.377	10029.69
552.635	9958.69
552.893	9936.69
553.151	10002.69
553.409	10111.69
553.666	10141.69
553.924	10072.69
554.182	10090.69
554.44	10214.69
554.698	10332.69
554.955	10264.69
555.213	10246.69
555.471	10424.69
555.729	10307.69
555.986	10180.69
556.244	10325.69
556.502	10511.69
556.76	10393.69
557.017	10408.69
557.275	10443.69
557.533	10581.69
557.79	10622.69
558.048	10485.69
558.306	10544.69
558.563	10654.69
558.821	10556.69
559.079	10504.69
559.336	10630.69
559.594	10670.69
559.852	10619.69
560.109	10523.69
560.367	10676.69
560.624	10774.69
560.882	10717.69
561.14	10708.69
561.397	10856.69
561.655	10724.69
561.912	10756.69
562.17	10696.69
562.427	10713.69
562.685	10823.69
562.942	10779.69
563.2	10658.69
563.457	10734.69
563.715	10820.69
563.972	10869.69
564.23	10718.69
564.487	10673.69
564.745	10752.69
565.002	10821.69
565.26	10710.69
565.517	10679.69
565.774	10732.69
566.032	10830.69
566.289	10694.69
566.547	10733.69
566.804	10836.69
567.061	10772.69
567.319	10681.69
567.576	10792.69
567.833	10953.69
568.091	10949.69
568.348	10733.69
568.605	10728.69
568.863	10761.69
569.12	10719.69
569.377	10650.69
569.635	10574.69
569.892	10564.69
570.149	10530.69
570.406	10480.69
570.664	10566.69
570.921	10657.69
571.178	10509.69
571.435	10458.69
571.693	10498.69
571.95	10507.69
572.207	10406.69
572.464	10393.69
572.721	10472.69
572.979	10463.69
573.236	10399.69
573.493	10271.69
573.75	10271.69
574.007	10373.69
574.264	10258.69
574.521	10221.69
574.779	10215.69
575.036	10188.69
575.293	10141.69
575.55	9988.69
575.807	9988.69
576.064	10060.69
576.321	10025.69
576.578	9906.69
576.835	9806.69
577.092	9952.69
577.349	9843.69
577.606	9552.69
577.863	9596.69
578.12	9711.69
578.377	9667.69
578.634	9420.69
578.891	9448.69
579.148	9539.69
579.405	9413.69
579.662	9306.69
579.919	9362.69
580.176	9392.69
580.433	9329.69
580.69	9175.69
580.947	9167.69
581.204	9178.69
581.461	9069.69
581.717	8954.69
581.974	9079.69
582.231	9049.69
582.488	8878.69
582.745	8632.69
583.002	8656.69
583.259	8832.69
583.515	8765.69
583.772	8571.69
584.029	8584.69
584.286	8641.69
584.543	8389.69
584.799	8365.69
585.056	8407.69
585.313	8488.69
585.57	8439.69
585.826	8228.69
586.083	8347.69
586.34	8470.69
586.597	8238.69
586.853	8019.69
587.11	8046.69
587.367	8128.69
587.623	8155.69
587.88	8050.69
588.137	7891.69
588.393	7967.69
588.65	7872.69
588.907	7722.69
589.163	7802.69
589.42	7857.69
589.677	7739.69
589.933	7606.69
590.19	7706.69
590.446	7816.69
590.703	7773.69
590.96	7456.69
591.216	7398.69
591.473	7476.69
591.729	7512.69
591.986	7508.69
592.242	7522.69
592.499	7670.69
592.755	7405.69
593.012	7259.69
593.268	7346.69
593.525	7293.69
593.781	7328.69
594.038	7234.69
594.294	7280.69
594.551	7321.69
594.807	7252.69
595.064	7190.69
595.32	7129.69
595.576	7241.69
595.833	7240.69
596.089	7125.69
596.346	7228.69
596.602	7202.69
596.858	7263.69
597.115	7096.69
597.371	7230.69
597.628	7234.69
597.884	7082.69
598.14	7008.69
598.397	7132.69
598.653	7187.69
598.909	7090.69
599.166	6994.69
599.422	7041.69
599.678	7108.69
599.934	7091.69
600.191	6929.69
600.447	6954.69
600.703	7004.69
600.959	6935.69
601.216	6790.69
601.472	6854.69
601.728	6952.69
601.984	6906.69
602.241	6844.69
602.497	6868.69
602.753	7020.69
603.009	6903.69
603.265	6834.69
603.521	6924.69
603.778	7055.69
604.034	6879.69
604.29	6796.69
604.546	6878.69
604.802	6955.69
605.058	6926.69
605.314	6794.69
605.571	6806.69
605.827	6824.69
606.083	6815.69
606.339	6680.69
606.595	6842.69
606.851	6985.69
607.107	6988.69
607.363	6743.69
607.619	6764.69
607.875	6959.69
608.131	6900.69
608.387	6672.69
608.643	6692.69
608.899	6780.69
609.155	6735.69
609.411	6701.69
609.667	6774.69
609.923	6748.69
610.179	6712.69
610.435	6593.69
610.691	6660.69
610.947	6734.69
611.203	6692.69
611.459	6621.69
611.714	6664.69
611.97	6823.69
612.226	6754.69
612.482	6519.69
612.738	6621.69
612.994	6834.69
613.25	6649.69
613.505	6476.69
613.761	6493.69
614.017	6596.69
614.273	6619.69
614.529	6515.69
614.785	6415.69
615.04	6525.69
615.296	6507.69
615.552	6456.69
615.808	6479.69
616.063	6526.69
616.319	6526.69
616.575	6453.69
616.831	6493.69
617.086	6632.69
617.342	6577.69
617.598	6445.69
617.854	6486.69
618.109	6586.69
618.365	6389.69
618.621	6292.69
618.876	6380.69
619.132	6500.69
619.388	6352.69
619.643	6184.69
619.899	6343.69
620.155	6394.69
620.41	6305.69
620.666	6214.69
620.921	6248.69
621.177	6351.69
621.433	6355.69
621.688	6223.69
621.944	6100.69
622.199	6187.69
622.455	6173.69
622.71	6095.69
622.966	6123.69
623.221	6127.69
623.477	6067.69
623.732	6099.69
623.988	6052.69
624.243	6159.69
624.499	6124.69
624.754	5970.69
625.01	5998.69
625.265	6082.69
625.521	6159.69
625.776	5968.69
626.032	5960.69
626.287	6033.69
626.543	5954.69
626.798	5871.69
627.053	5881.69
627.309	5951.69
627.564	5823.69
627.82	5811.69
628.075	5858.69
628.33	5797.69
628.586	5764.69
628.841	5612.69
629.096	5704.69
629.352	5789.69
629.607	5714.69
629.862	5637.69
630.118	5730.69
630.373	5641.69
630.628	5669.69
630.884	5543.69
631.139	5589.69
631.394	5686.69
631.649	5634.69
631.905	5516.69
632.16	5543.69
632.415	5668.69
632.67	5546.69
632.926	5422.69
633.181	5358.69
633.436	5525.69
633.691	5460.69
633.946	5292.69
634.202	5285.69
634.457	5437.69
634.712	5383.69
634.967	5247.69
635.222	5272.69
635.477	5352.69
635.733	5293.69
635.988	5167.69
636.243	5170.69
636.498	5253.69
636.753	5276.69
637.008	5120.69
637.263	5149.69
637.518	5219.69
637.773	5163.69
638.028	5144.69
638.283	5132.69
638.539	5188.69
638.794	5163.69
639.049	5000.69
639.304	4963.69
639.559	5012.69
639.814	5028.69
640.069	4946.69
640.324	4940.69
640.579	5030.69
640.834	4998.69
641.089	4871.69
641.344	4909.69
641.598	5094.69
641.853	4988.69
642.108	4802.69
642.363	4736.69
642.618	4915.69
642.873	4787.69
643.128	4685.69
643.383	4721.69
643.638	4790.69
643.893	4838.69
644.148	4797.69
644.402	4663.69
644.657	4728.69
644.912	4680.69
645.167	4665.69
645.422	4731.69
645.677	4705.69
645.931	4678.69
646.186	4678.69
646.441	4613.69
646.696	4563.69
646.951	4580.69
647.205	4534.69
647.46	4503.69
647.715	4563.69
647.97	4728.69
648.224	4812.69
648.479	4637.69
648.734	4721.69
648.989	4668.69
649.243	4568.69
649.498	4503.69
649.753	4522.69
650.007	4601.69
650.262	4475.69
650.517	4463.69
650.771	4474.69
651.026	4407.69
651.281	4308.69
651.535	4437.69
651.79	4450.69
652.045	4453.69
652.299	4349.69
652.554	4346.69
652.809	4418.69
653.063	4572.69
653.318	4485.69
653.572	4382.69
653.827	4448.69
654.081	4375.69
654.336	4228.69
654.591	4249.69
654.845	4377.69
655.1	4293.69
655.354	4224.69
655.609	4261.69
655.863	4416.69
656.118	4424.69
656.372	4260.69
656.627	4264.69
656.881	4349.69
657.136	4255.69
657.39	4209.69
657.645	4315.69
657.899	4434.69
658.153	4342.69
658.408	4213.69
658.662	4208.69
658.917	4250.69
659.171	4139.69
659.426	4084.69
659.68	4180.69
659.934	4267.69
660.189	4206.69
660.443	4090.69
660.697	4242.69
660.952	4340.69
661.206	4243.69
661.46	4074.69
661.715	4156.69
661.969	4249.69
662.223	4207.69
662.478	4137.69
662.732	4188.69
662.986	4239.69
663.241	4238.69
663.495	4128.69
663.749	4171.69
664.003	4334.69
664.258	4208.69
664.512	4110.69
664.766	4165.69
665.02	4242.69
665.275	4279.69
665.529	4096.69
665.783	4161.69
666.037	4268.69
666.291	4277.69
666.546	4159.69
666.8	4180.69
667.054	4175.69
667.308	4227.69
667.562	4061.69
667.816	4135.69
668.071	4253.69
668.325	4166.69
668.579	4152.69
668.833	4218.69
669.087	4369.69
669.341	4258.69
669.595	4173.69
669.849	4238.69
670.103	4287.69
670.357	4298.69
670.612	4248.69
670.866	4227.69
671.12	4327.69
671.374	4333.69
671.628	4327.69
671.882	4294.69
672.136	4321.69
672.39	4286.69
672.644	4122.69
672.898	4311.69
673.152	4475.69
673.406	4402.69
673.66	4328.69
673.914	4370.69
674.168	4428.69
674.422	4351.69
674.675	4268.69
674.929	4331.69
675.183	4433.69
675.437	4416.69
675.691	4334.69
675.945	4430.69
676.199	4559.69
676.453	4405.69
676.707	4255.69
676.961	4292.69
677.214	4469.69
677.468	4493.69
677.722	4507.69
677.976	4429.69
678.23	4509.69
678.484	4538.69
678.737	4411.69
678.991	4431.69
679.245	4529.69
679.499	4536.69
679.753	4432.69
680.006	4553.69
680.26	4639.69
680.514	4625.69
680.768	4479.69
681.021	4512.69
681.275	4586.69
681.529	4613.69
681.783	4526.69
682.036	4596.69
682.29	4565.69
682.544	4609.69
682.797	4580.69
683.051	4558.69
683.305	4623.69
683.559	4630.69
683.812	4650.69
684.066	4682.69
684.32	4717.69
684.573	4669.69
684.827	4670.69
685.08	4714.69
685.334	4854.69
685.588	4758.69
685.841	4587.69
686.095	4757.69
686.348	4802.69
686.602	4750.69
686.856	4760.69
687.109	4671.69
687.363	4728.69
687.616	4664.69
687.87	4557.69
688.123	4653.69
688.377	4823.69
688.63	4824.69
688.884	4735.69
689.137	4829.69
689.391	4883.69
689.644	4751.69
689.898	4668.69
690.151	4710.69
690.405	4860.69
690.658	4825.69
690.912	4766.69
691.165	4751.69
691.419	4846.69
691.672	4897.69
691.926	4768.69
692.179	4753.69
692.432	4862.69
692.686	4815.69
692.939	4722.69
693.193	4777.69
693.446	4953.69
693.699	4935.69
693.953	4890.69
694.206	4844.69
694.459	4949.69
694.713	4998.69
694.966	4860.69
695.219	4810.69
695.473	4934.69
695.726	4886.69
695.979	4786.69
696.233	4888.69
696.486	4950.69
696.739	4915.69
696.992	4816.69
697.246	4934.69
697.499	5021.69
697.752	4810.69
698.006	4792.69
698.259	4908.69
698.512	4887.69
698.765	4857.69
699.018	4811.69
699.272	4856.69
699.525	4872.69
699.778	4765.69
700.031	4775.69
700.284	4809.69
700.538	4900.69
700.791	4884.69
701.044	4833.69
701.297	4839.69
701.55	4876.69
701.803	4825.69
702.056	4703.69
702.31	4794.69
702.563	4936.69
702.816	4835.69
703.069	4664.69
703.322	4774.69
703.575	4889.69
703.828	4878.69
704.081	4745.69
704.334	4777.69
704.587	4824.69
704.84	4783.69
705.093	4763.69
705.346	4852.69
705.599	4869.69
705.853	4840.69
706.106	4885.69
706.359	5124.69
706.612	4875.69
706.865	4895.69
707.118	4716.69
707.37	4804.69
707.623	4935.69
707.876	4864.69
708.129	4812.69
708.382	4892.69
708.635	4970.69
708.888	4777.69
709.141	4707.69
709.394	4810.69
709.647	4851.69
709.9	4667.69
710.153	4649.69
710.406	4830.69
710.658	4841.69
710.911	4786.69
711.164	4647.69
711.417	4612.69
711.67	4691.69
711.923	4766.69
712.176	4653.69
712.428	4657.69
712.681	4728.69
712.934	4700.69
713.187	4606.69
713.44	4566.69
713.692	4700.69
713.945	4658.69
714.198	4532.69
714.451	4494.69
714.704	4578.69
714.956	4634.69
715.209	4710.69
715.462	4649.69
715.715	4637.69
715.967	4621.69
716.22	4450.69
716.473	4505.69
716.725	4667.69
716.978	4624.69
717.231	4602.69
717.484	4650.69
717.736	4544.69
717.989	4436.69
718.242	4371.69
718.494	4498.69
718.747	4605.69
718.999	4512.69
719.252	4497.69
719.505	4490.69
719.757	4479.69
720.01	4414.69
720.263	4396.69
720.515	4402.69
720.768	4514.69
721.02	4512.69
721.273	4388.69
721.525	4273.69
721.778	4352.69
722.031	4427.69
722.283	4273.69
722.536	4277.69
722.788	4365.69
723.041	4311.69
723.293	4224.69
723.546	4213.69
723.798	4317.69
724.051	4384.69
724.303	4325.69
724.556	4370.69
724.808	4446.69
725.061	4322.69
725.313	4180.69
725.566	4190.69
725.818	4254.69
726.071	4177.69
726.323	4053.69
726.575	4115.69
726.828	4277.69
727.08	4259.69
727.333	4118.69
727.585	4103.69
727.837	4156.69
728.09	4171.69
728.342	3999.69
728.595	4115.69
728.847	4274.69
729.099	4033.69
729.352	4041.69
729.604	4019.69
729.856	4114.69
730.109	4058.69
730.361	3974.69
730.613	4066.69
730.866	4157.69
731.118	4004.69
731.37	3954.69
731.622	3942.69
731.875	4003.69
732.127	4053.69
732.379	3978.69
732.631	4054.69
732.884	4023.69
733.136	3918.69
733.388	3800.69
733.64	3877.69
733.893	3970.69
734.145	3919.69
734.397	3772.69
734.649	3779.69
734.901	3892.69
735.154	3778.69
735.406	3689.69
735.658	3769.69
735.91	3895.69
736.162	3834.69
736.414	3737.69
736.667	3823.69
736.919	3838.69
737.171	3735.69
737.423	3693.69
737.675	3738.69
737.927	3815.69
738.179	3709.69
738.431	3683.69
738.684	3623.69
738.936	3670.69
739.188	3744.69
739.44	3573.69
739.692	3568.69
739.944	3556.69
740.196	3572.69
740.448	3506.69
740.7	3544.69
740.952	3629.69
741.204	3620.69
741.456	3467.69
741.708	3513.69
741.96	3533.69
742.212	3597.69
742.464	3577.69
742.716	3471.69
742.968	3552.69
743.22	3481.69
743.472	3417.69
743.724	3481.69
743.976	3604.69
744.228	3578.69
744.48	3349.69
744.732	3407.69
744.983	3565.69
745.235	3493.69
745.487	3470.69
745.739	3491.69
745.991	3469.69
746.243	3537.69
746.495	3335.69
746.747	3349.69
746.999	3490.69
747.25	3434.69
747.502	3426.69
747.754	3478.69
748.006	3385.69
748.258	3525.69
748.51	3562.69
748.761	3379.69
749.013	3415.69
749.265	3461.69
749.517	3424.69
749.768	3504.69
750.02	3510.69
750.272	3442.69
750.524	3268.69
750.776	3204.69
751.027	3401.69
751.279	3427.69
751.531	3200.69
751.782	3282.69
752.034	3357.69
752.286	3290.69
752.538	3182.69
752.789	3255.69
753.041	3335.69
753.293	3260.69
753.544	3183.69
753.796	3203.69
754.048	3283.69
754.299	3276.69
754.551	3217.69
754.803	3165.69
755.054	3189.69
755.306	3257.69
755.558	3130.69
755.809	3142.69
756.061	3290.69
756.312	3181.69
756.564	3142.69
756.816	3155.69
757.067	3154.69
757.319	3138.69
757.57	3090.69
757.822	3160.69
758.073	3246.69
758.325	3168.69
758.577	3023.69
758.828	3049.69
759.08	3222.69
759.331	3210.69
759.583	3007.69
759.834	3118.69
760.086	3097.69
760.337	3075.69
760.589	3009.69
760.84	2994.69
761.092	3050.69
761.343	3018.69
761.595	2889.69
761.846	3017.69
762.097	3034.69
762.349	3027.69
762.6	2886.69
762.852	2988.69
763.103	3117.69
763.355	2923.69
763.606	2861.69
763.857	3012.69
764.109	3099.69
764.36	2972.69
764.612	2876.69
764.863	2998.69
765.114	2992.69
765.366	2851.69
765.617	2782.69
765.868	2851.69
766.12	3003.69
766.371	2997.69
766.622	2787.69
766.874	2870.69
767.125	2971.69
767.376	2864.69
767.628	2786.69
767.879	2835.69
768.13	2926.69
768.381	2926.69
768.633	2844.69
768.884	2824.69
769.135	2901.69
769.386	2834.69
769.638	2794.69
769.889	2803.69
770.14	2818.69
770.391	2732.69
770.643	2675.69
770.894	2686.69
771.145	2829.69
771.396	2746.69
771.647	2666.69
771.899	2781.69
772.15	2824.69
772.401	2760.69
772.652	2618.69
772.903	2671.69
773.154	3006.69
773.406	3220.69
773.657	2684.69
773.908	2664.69
774.159	2749.69
774.41	2738.69
774.661	2614.69
774.912	2677.69
775.163	2819.69
775.414	2789.69
775.666	2560.69
775.917	2579.69
776.168	2611.69
776.419	2622.69
776.67	2514.69
776.921	2521.69
777.172	2585.69
777.423	2628.69
777.674	2637.69
777.925	2617.69
778.176	2521.69
778.427	2558.69
778.678	2440.69
778.929	2502.69
779.18	2591.69
779.431	2503.69
779.682	2543.69
779.933	2554.69
780.184	2578.69
780.435	2540.69
780.686	2494.69
780.937	2570.69
781.188	2580.69
781.439	2650.69
781.69	2589.69
781.941	2508.69
782.191	2518.69
782.442	2492.69
782.693	2396.69
782.944	2425.69
783.195	2522.69
783.446	2476.69
783.697	2489.69
783.948	2404.69
784.199	2403.69
784.449	2393.69
784.7	2378.69
784.951	2386.69
785.202	2538.69
785.453	2501.69
785.704	2311.69
785.954	2298.69
786.205	2375.69
786.456	2331.69
786.707	2238.69
786.958	2307.69
787.208	2399.69
787.459	2323.69
787.71	2338.69
787.961	2340.69
788.211	2371.69
788.462	2347.69
788.713	2280.69
788.964	2255.69
789.214	2365.69
789.465	2372.69
789.716	2304.69
789.967	2318.69
790.217	2277.69
790.468	2251.69
790.719	2193.69
790.969	2224.69
791.22	2281.69
791.471	2342.69
791.721	2343.69
791.972	2226.69
792.223	2310.69
792.473	2239.69
792.724	2211.69
792.975	2194.69
793.225	2238.69
793.476	2212.69
793.726	2130.69
793.977	2231.69
794.228	2354.69
794.478	2285.69
794.729	2168.69
794.979	2243.69
795.23	2286.69
795.481	2237.69
795.731	2127.69
795.982	2180.69
796.232	2182.69
796.483	2106.69
796.733	2053.69
796.984	2104.69
797.234	2186.69
797.485	2217.69
797.735	2039.69
797.986	2076.69
798.236	2210.69
798.487	2122.69
798.737	2099.69
798.988	2187.69
799.238	2221.69
799.489	2118.69
799.739	2022.69
799.99	2096.69
800.24	2204.69
800.491	2237.69
800.741	2073.69
800.991	1993.69
801.242	2082.69
801.492	2109.69
801.743	2019.69
801.993	2234.69
802.244	2477.69
802.494	2100.69
802.744	2032.69
802.995	2063.69
803.245	2085.69
803.495	2012.69
803.746	1959.69
803.996	2068.69
804.246	2051.69
804.497	2060.69
804.747	1922.69
804.997	1995.69
805.248	2023.69
805.498	1962.69
805.748	1989.69
805.999	1900.69
806.249	1961.69
806.499	1956.69
806.75	1869.69
807	1912.69
807.25	2004.69
807.5	1949.69
807.751	1984.69
808.001	1992.69
808.251	2006.69
808.501	2055.69
808.752	2029.69
809.002	1981.69
809.252	1977.69
809.502	1906.69
809.752	1871.69
810.003	1819.69
810.253	1890.69
810.503	1956.69
810.753	1956.69
811.003	1949.69
811.254	1978.69
811.504	1938.69
811.754	1894.69
812.004	1898.69
812.254	2126.69
812.504	1957.69
812.754	1829.69
813.005	1891.69
813.255	1965.69
813.505	1892.69
813.755	1786.69
814.005	1868.69
814.255	1895.69
814.505	1858.69
814.755	1755.69
815.005	1768.69
815.255	1911.69
815.505	1896.69
815.756	1912.69
816.006	1834.69
816.256	1780.69
816.506	1758.69
816.756	1734.69
817.006	1763.69
817.256	1820.69
817.506	1802.69
817.756	1752.69
818.006	1766.69
818.256	1837.69
818.506	1842.69
818.756	1654.69
819.006	1722.69
819.256	1839.69
819.506	1788.69
819.756	1734.69
820.006	1788.69
820.255	1851.69
820.505	1848.69
820.755	1713.69
821.005	1736.69
821.255	1839.69
821.505	1775.69
821.755	1694.69
822.005	1804.69
822.255	1872.69
822.505	1767.69
822.755	1790.69
823.004	1648.69
823.254	1662.69
823.504	1759.69
823.754	1767.69
824.004	1668.69
824.254	1770.69
824.504	1749.69
824.753	1785.69
825.003	1768.69
825.253	1811.69
825.503	1725.69
825.753	1655.69
826.002	1732.69
826.252	1910.69
826.502	1714.69
826.752	1605.69
827.002	1630.69
827.251	1731.69
827.501	1678.69
827.751	1596.69
828.001	1650.69
828.25	1765.69
828.5	1601.69
828.75	1530.69
829	1617.69
829.249	1754.69
829.499	1628.69
829.749	1625.69
829.998	1663.69
830.248	1684.69
830.498	1566.69
830.748	1580.69
830.997	1651.69
831.247	1704.69
831.497	1700.69
831.746	1611.69
831.996	1684.69
832.246	1803.69
832.495	1785.69
832.745	1538.69
832.994	1530.69
833.244	1656.69
833.494	1608.69
833.743	1540.69
833.993	1574.69
834.243	1632.69
834.492	1623.69
834.742	1580.69
834.991	1564.69
835.241	1730.69
835.49	1587.69
835.74	1480.69
835.99	1541.69
836.239	1620.69
836.489	1641.69
836.738	1542.69
836.988	1433.69
837.237	1544.69
837.487	1655.69
837.736	1538.69
837.986	1523.69
838.235	1574.69
838.485	1527.69
838.734	1479.69
838.984	1551.69
839.233	1539.69
839.483	1448.69
839.732	1382.69
839.982	1483.69
840.231	1570.69
840.481	1566.69
840.73	1441.69
840.979	1502.69
841.229	1516.69
841.478	1499.69
841.728	1375.69
841.977	1329.69
842.227	1395.69
842.476	1362.69
842.725	1355.69
842.975	1423.69
843.224	1511.69
843.474	1535.69
843.723	1426.69
843.972	1399.69
844.222	1450.69
844.471	1524.69
844.72	1416.69
844.97	1401.69
845.219	1508.69
845.468	1486.69
845.718	1401.69
845.967	1447.69
846.216	1493.69
846.466	1515.69
846.715	1376.69
846.964	1389.69
847.214	1415.69
847.463	1362.69
847.712	1376.69
847.961	1297.69
848.211	1385.69
848.46	1392.69
848.709	1349.69
848.958	1319.69
849.208	1368.69
849.457	1382.69
849.706	1387.69
849.955	1331.69
850.205	1328.69
850.454	1437.69
850.703	1452.69
850.952	1387.69
851.201	1429.69
851.451	1369.69
851.7	1386.69
851.949	1256.69
852.198	1365.69
852.447	1340.69
852.696	1260.69
852.946	1284.69
853.195	1389.69
853.444	1390.69
853.693	1212.69
853.942	1237.69
854.191	1314.69
854.44	1354.69
854.689	1292.69
854.939	1228.69
855.188	1198.69
855.437	1212.69
855.686	1234.69
855.935	1259.69
856.184	1295.69
856.433	1348.69
856.682	1271.69
856.931	1262.69
857.18	1287.69
857.429	1221.69
857.678	1186.69
857.927	1252.69
858.176	1262.69
858.425	1197.69
858.674	1142.69
858.924	1203.69
859.173	1204.69
859.422	1243.69
859.671	1110.69
859.92	1181.69
860.169	1231.69
860.417	1251.69
860.666	1182.69
860.915	1151.69
861.164	1191.69
861.413	1152.69
861.662	1106.69
861.911	1139.69
862.16	1258.69
862.409	1218.69
862.658	1059.69
862.907	1093.69
863.156	1184.69
863.405	1180.69
863.654	1092.69
863.903	1029.69
864.151	1111.69
864.4	1151.69
864.649	1102.69
864.898	1172.69
865.147	1231.69
865.396	1230.69
865.645	1095.69
865.894	1138.69
866.142	1276.69
866.391	1171.69
866.64	1048.69
866.889	1135.69
867.138	1279.69
867.387	1178.69
867.635	1058.69
867.884	1106.69
868.133	1203.69
868.382	1136.69
868.631	1005.69
868.879	1043.69
869.128	1136.69
869.377	1116.69
869.626	1058.69
869.874	1070.69
870.123	1153.69
870.372	1114.69
870.621	987.69
870.869	1017.69
871.118	1123.69
871.367	1096.69
871.616	987.69
871.864	1080.69
872.113	1087.69
872.362	1068.69
872.61	995.69
872.859	1072.69
873.108	1155.69
873.357	1038.69
873.605	938.69
873.854	963.69
874.103	1005.69
874.351	1018.69
874.6	978.69
874.848	989.69
875.097	1025.69
875.346	1040.69
875.594	940.69
875.843	1063.69
876.092	1212.69
876.34	1055.69
876.589	958.69
876.837	904.69
877.086	959.69
877.335	1027.69
877.583	957.69
877.832	1010.69
878.08	1141.69
878.329	1011.69
878.578	950.69
878.826	966.69
879.075	1054.69
879.323	1049.69
879.572	950.69
879.82	1053.69
880.069	1026.69
880.317	1023.69
880.566	884.69
880.814	983.69
881.063	1114.69
881.311	1017.69
881.56	1028.69
881.808	951.69
882.057	1022.69
882.305	970.69
882.554	992.69
882.802	890.69
883.051	923.69
883.299	923.69
883.548	868.69
883.796	968.69
884.045	950.69
884.293	889.69
884.541	782.69
884.79	779.69
885.038	898.69
885.287	914.69
885.535	926.69
885.783	944.69
886.032	898.69
886.28	839.69
886.529	787.69
886.777	870.69
887.025	1014.69
887.274	875.69
887.522	807.69
887.77	838.69
888.019	878.69
888.267	853.69
888.516	749.69
888.764	803.69
889.012	899.69
889.261	872.69
889.509	777.69
889.757	799.69
890.005	848.69
890.254	783.69
890.502	818.69
890.75	1020.69
890.999	1010.69
891.247	901.69
891.495	867.69
891.743	852.69
891.992	982.69
892.24	865.69
892.488	748.69
892.737	788.69
892.985	878.69
893.233	865.69
893.481	780.69
893.729	755.69
893.978	903.69
894.226	931.69
894.474	752.69
894.722	740.69
894.97	799.69
895.219	796.69
895.467	794.69
895.715	830.69
895.963	820.69
896.211	755.69
896.46	671.69
896.708	775.69
896.956	843.69
897.204	915.69
897.452	839.69
897.7	776.69
897.948	851.69
898.197	791.69
898.445	727.69
898.693	758.69
898.941	806.69
899.189	795.69
899.437	759.69
899.685	857.69
899.933	784.69
900.181	780.69
900.43	696.69
900.678	725.69
900.926	787.69
901.174	757.69
901.422	691.69
901.67	720.69
901.918	803.69
902.166	766.69
902.414	626.69
902.662	656.69
902.91	742.69
903.158	743.69
903.406	697.69
903.654	708.69
903.902	747.69
904.15	722.69
904.398	610.69
904.646	688.69
904.894	757.69
905.142	766.69
905.39	722.69
905.638	678.69
905.886	708.69
906.134	672.69
906.382	664.69
906.63	626.69
906.878	723.69
907.126	732.69
907.374	633.69
907.622	628.69
907.869	766.69
908.117	759.69
908.365	664.69
908.613	644.69
908.861	660.69
909.109	599.69
909.357	582.69
909.605	622.69
909.853	712.69
910.1	662.69
910.348	506.69
910.596	539.69
910.844	708.69
911.092	739.69
911.34	618.69
911.588	638.69
911.835	704.69
912.083	668.69
912.331	648.69
912.579	681.69
912.827	845.69
913.075	720.69
913.322	581.69
913.57	580.69
913.818	721.69
914.066	652.69
914.313	597.69
914.561	651.69
914.809	669.69
915.057	627.69
915.305	608.69
915.552	581.69
915.8	692.69
916.048	602.69
916.296	531.69
916.543	626.69
916.791	686.69
917.039	660.69
917.286	519.69
917.534	540.69
917.782	675.69
918.03	597.69
918.277	474.69
918.525	493.69
918.773	618.69
919.02	585.69
919.268	541.69
919.516	558.69
919.763	551.69
920.011	574.69
920.259	498.69
920.506	582.69
920.754	649.69
921.002	638.69
921.249	608.69
921.497	568.69
921.745	583.69
921.992	590.69
922.24	431.69
922.487	563.69
922.735	743.69
922.983	650.69
923.23	553.69
923.478	487.69
923.725	587.69
923.973	600.69
924.221	572.69
924.468	606.69
924.716	609.69
924.963	571.69
925.211	529.69
925.458	594.69
925.706	677.69
925.953	728.69
926.201	536.69
926.448	501.69
926.696	591.69
926.944	544.69
927.191	476.69
927.439	491.69
927.686	531.69
927.934	548.69
928.181	446.69
928.429	457.69
928.676	527.69
928.923	450.69
929.171	407.69
929.418	535.69
929.666	607.69
929.913	591.69
930.161	392.69
930.408	421.69
930.656	506.69
930.903	530.69
931.151	412.69
931.398	461.69
931.645	594.69
931.893	496.69
932.14	455.69
932.388	468.69
932.635	620.69
932.882	652.69
933.13	526.69
933.377	468.69
933.625	551.69
933.872	460.69
934.119	378.69
934.367	449.69
934.614	440.69
934.861	427.69
935.109	410.69
935.356	455.69
935.603	523.69
935.851	478.69
936.098	402.69
936.345	502.69
936.593	524.69
936.84	460.69
937.087	333.69
937.335	391.69
937.582	478.69
937.829	492.69
938.077	447.69
938.324	416.69
938.571	494.69
938.818	420.69
939.066	376.69
939.313	364.69
939.56	467.69
939.807	493.69
940.055	359.69
940.302	396.69
940.549	546.69
940.796	469.69
941.044	414.69
941.291	435.69
941.538	564.69
941.785	470.69
942.033	414.69
942.28	489.69
942.527	520.69
942.774	486.69
943.021	334.69
943.269	357.69
943.516	464.69
943.763	478.69
944.01	413.69
944.257	482.69
944.504	541.69
944.752	485.69
944.999	422.69
945.246	368.69
945.493	457.69
945.74	422.69
945.987	346.69
946.234	415.69
946.482	508.69
946.729	394.69
946.976	351.69
947.223	374.69
947.47	520.69
947.717	467.69
947.964	462.69
948.211	433.69
948.458	489.69
948.705	417.69
948.952	310.69
949.2	410.69
949.447	535.69
949.694	511.69
949.941	344.69
950.188	346.69
950.435	391.69
950.682	412.69
950.929	276.69
951.176	329.69
951.423	490.69
951.67	453.69
951.917	418.69
952.164	394.69
952.411	445.69
952.658	500.69
952.905	343.69
953.152	312.69
953.399	430.69
953.646	410.69
953.893	317.69
954.14	350.69
954.387	390.69
954.634	368.69
954.881	302.69
955.128	372.69
955.375	383.69
955.622	382.69
955.869	368.69
956.115	342.69
956.362	411.69
956.609	379.69
956.856	297.69
957.103	306.69
957.35	427.69
957.597	444.69
957.844	358.69
958.091	347.69
958.338	432.69
958.585	386.69
958.831	201.69
959.078	260.69
959.325	399.69
959.572	302.69
959.819	258.69
960.066	207.69
960.313	314.69
960.559	300.69
960.806	199.69
961.053	240.69
961.3	405.69
961.547	418.69
961.794	217.69
962.04	388.69
962.287	412.69
962.534	274.69
962.781	242.69
963.028	313.69
963.274	414.69
963.521	312.69
963.768	245.69
964.015	284.69
964.262	450.69
964.508	290.69
964.755	199.69
965.002	238.69
965.249	282.69
965.495	229.69
965.742	178.69
965.989	207.69
966.236	327.69
966.482	262.69
966.729	222.69
966.976	204.69
967.222	273.69
967.469	262.69
967.716	181.69
967.963	205.69
968.209	287.69
968.456	253.69
968.703	149.69
968.949	227.69
969.196	401.69
969.443	418.69
969.689	207.69
969.936	172.69
970.183	271.69
970.429	202.69
970.676	163.69
970.923	251.69
971.169	302.69
971.416	219.69
971.663	174.69
971.909	242.69
972.156	304.69
972.402	291.69
972.649	224.69
972.896	251.69
973.142	275.69
973.389	286.69
973.635	187.69
973.882	308.69
974.129	367.69
974.375	244.69
974.622	165.69
974.868	188.69
975.115	243.69
975.361	202.69
975.608	184.69
975.855	301.69
976.101	324.69
976.348	239.69
976.594	180.69
976.841	227.69
977.087	244.69
977.334	263.69
977.58	116.69
977.827	115.69
978.073	267.69
978.32	236.69
978.566	120.69
978.813	200.69
979.059	237.69
979.306	203.69
979.552	125.69
979.799	216.69
980.045	205.69
980.292	198.69
980.538	131.69
980.785	125.69
981.031	170.69
981.278	148.69
981.524	76.69
981.771	216.69
982.017	362.69
982.263	291.69
982.51	128.69
982.756	207.69
983.003	282.69
983.249	192.69
983.495	111.69
983.742	103.69
983.988	173.69
984.235	207.69
984.481	124.69
984.727	123.69
984.974	251.69
985.22	238.69
985.467	160.69
985.713	166.69
985.959	275.69
986.206	246.69
986.452	165.69
986.698	200.69
986.945	214.69
987.191	255.69
987.437	247.69
987.684	200.69
987.93	361.69
988.176	276.69
988.423	69.69
988.669	155.69
988.915	328.69
989.162	170.69
989.408	64.69
989.654	140.69
989.901	182.69
990.147	173.69
990.393	178.69
990.639	218.69
990.886	239.69
991.132	305.69
991.378	231.69
991.625	328.69
991.871	304.69
992.117	240.69
992.363	163.69
992.61	193.69
992.856	308.69
993.102	158.69
993.348	102.69
993.594	136.69
993.841	181.69
994.087	309.69
994.333	159.69
994.579	148.69
994.826	213.69
995.072	232.69
995.318	18.69
995.564	69.69
995.81	218.69
996.057	165.69
996.303	58.69
996.549	80.69
996.795	170.69
997.041	155.69
997.287	106.69
997.534	106.69
997.78	174.69
998.026	178.69
998.272	71.69
998.518	62.69
998.764	195.69
999.01	236.69
999.256	144.69
999.503	94.69
999.749	116.69
999.995	88.69
1000.241	69.69
1000.487	122.69
1000.733	167.69
1000.979	161.69
1001.225	131.69
1001.471	177.69
1001.718	236.69
1001.964	259.69
1002.21	88.69
1002.456	117.69
1002.702	263.69
1002.948	170.69
1003.194	109.69
1003.44	83.69
1003.686	148.69
1003.932	108.69
1004.178	71.69
1004.424	129.69
1004.67	262.69
1004.916	229.69
1005.162	138.69
1005.408	88.69
1005.654	204.69
1005.9	64.69
1006.146	8.69
1006.392	78.69
1006.638	169.69
1006.884	133.69
1007.13	62.69
1007.376	46.69
1007.622	211.69
1007.868	229.69
1008.114	94.69
1008.36	152.69
1008.606	180.69
1008.852	203.69
1009.098	144.69
1009.344	179.69
1009.59	154.69
1009.836	17.69
1010.082	-45.31
1010.328	71.69
1010.574	155.69
1010.82	62.69
1011.065	-17.31
1011.311	-6.31
1011.557	120.69
1011.803	83.69
1012.049	29.69
1012.295	58.69
1012.541	108.69
1012.787	134.69
1013.033	-4.31
1013.278	-21.31
1013.524	117.69
1013.77	191.69
1014.016	82.69
1014.262	88.69
1014.508	191.69
1014.754	25.69
1015	-4.31
1015.245	151.69
1015.491	188.69
1015.737	151.69
1015.983	19.69
1016.229	-12.31
1016.475	98.69
1016.72	212.69
1016.966	238.69
1017.212	130.69
1017.458	191.69
1017.704	111.69
1017.949	-13.31
1018.195	148.69
1018.441	247.69
1018.687	220.69
1018.933	56.69
1019.178	43.69
1019.424	199.69
1019.67	208.69
1019.916	6.69
1020.161	68.69
1020.407	115.69
1020.653	54.69
1020.899	-17.31
1021.144	66.69
1021.39	147.69
1021.636	46.69
1021.882	-57.31
1022.127	57.69
1022.373	199.69
1022.619	139.69
1022.865	44.69
1023.11	47.69
1023.356	163.69
1023.602	84.69
1023.847	38.69
1024.093	88.69
1024.339	62.69
1024.584	32.69
1024.83	11.69
1025.076	10.69
1025.321	131.69
1025.567	115.69
1025.813	0.69
1026.058	80.69
1026.304	131.69
1026.55	60.69
1026.795	46.69
1027.041	52.69
1027.287	105.69
1027.532	104.69
1027.778	68.69
1028.024	45.69
1028.269	85.69
1028.515	18.69
1028.76	-21.31
1029.006	41.69
1029.252	144.69
1029.497	64.69
1029.743	57.69
1029.989	-6.31
1030.234	133.69
1030.48	197.69
1030.725	3.69
1030.971	6.69
1031.216	153.69
1031.462	63.69
1031.708	-65.31
1031.953	-18.31
1032.199	67.69
1032.444	64.69
1032.69	-13.31
1032.935	21.69
1033.181	133.69
1033.426	9.69
1033.672	-120.31
1033.918	-57.31
1034.163	39.69
1034.409	30.69
1034.654	17.69
1034.9	118.69
1035.145	143.69
1035.391	51.69
1035.636	-63.31
1035.882	7.69
1036.127	21.69
1036.373	-9.31
1036.618	-115.31
1036.864	-14.31
1037.109	122.69
1037.355	36.69
1037.6	-36.31
1037.845	-11.31
1038.091	178.69
1038.336	151.69
1038.582	164.69
1038.827	227.69
1039.073	70.69
1039.318	-2.31
1039.564	-104.31
1039.809	-37.31
1040.055	146.69
1040.3	142.69
1040.545	-27.31
1040.791	-34.31
1041.036	24.69
1041.282	67.69
1041.527	122.69
1041.772	-58.31
1042.018	18.69
1042.263	44.69
1042.509	-110.31
1042.754	-66.31
1042.999	65.69
1043.245	40.69
1043.49	-127.31
1043.736	-78.31
1043.981	25.69
1044.226	50.69
1044.472	10.69
1044.717	8.69
1044.962	125.69
1045.208	39.69
1045.453	-186.31
1045.698	-99.31
1045.944	105.69
1046.189	64.69
1046.434	-32.31
1046.68	-17.31
1046.925	151.69
1047.17	1.69
1047.416	-175.31
1047.661	-58.31
1047.906	85.69
1048.152	62.69
1048.397	-9.31
1048.642	-23.31
1048.887	162.69
1049.133	147.69
1049.378	-26.31
1049.623	-54.31
1049.869	68.69
1050.114	4.69
1050.359	-72.31
1050.604	2.69
1050.85	151.69
1051.095	27.69
1051.34	-74.31
1051.585	-4.31
1051.831	179.69
1052.076	23.69
1052.321	-188.31
1052.566	-75.31
1052.812	115.69
1053.057	23.69
1053.302	-48.31
1053.547	50.69
1053.792	105.69
1054.038	72.69
1054.283	-116.31
1054.528	-27.31
1054.773	34.69
1055.018	24.69
1055.264	-77.31
1055.509	-95.31
1055.754	22.69
1055.999	-43.31
1056.244	-112.31
1056.49	-43.31
1056.735	40.69
1056.98	0.69
1057.225	-105.31
1057.47	71.69
1057.715	10.69
1057.96	-61.31
1058.206	-103.31
1058.451	-2.31
1058.696	122.69
1058.941	58.69
1059.186	-109.31
1059.431	-92.31
1059.676	99.69
1059.922	46.69
1060.167	120.69
1060.412	284.69
1060.657	67.69
1060.902	-0.31
1061.147	-150.31
1061.392	-68.31
1061.637	76.69
1061.882	-7.31
1062.127	-156.31
1062.373	-116.31
1062.618	130.69
1062.863	150.69
1063.108	-52.31
1063.353	-102.31
1063.598	-2.31
1063.843	-17.31
1064.088	-103.31
1064.333	-97.31
1064.578	48.69
1064.823	70.69
1065.068	-173.31
1065.313	-99.31
1065.558	55.69
1065.803	53.69
1066.048	-147.31
1066.293	-129.31
1066.538	74.69
1066.783	21.69
1067.028	-156.31
1067.273	-125.31
1067.518	43.69
1067.763	-25.31
1068.008	-161.31
1068.253	-110.31
1068.498	70.69
1068.743	14.69
1068.988	-143.31
1069.233	-122.31
1069.478	90.69
1069.723	137.69
1069.968	-57.31
1070.213	-21.31
1070.458	104.69
1070.703	-4.31
1070.948	-181.31
1071.193	-76.31
1071.438	76.69
1071.683	105.69
1071.928	-33.31
1072.173	-48.31
1072.418	19.69
1072.663	7.69
1072.908	-125.31
1073.152	-71.31
1073.397	94.69
1073.642	-23.31
1073.887	-72.31
1074.132	36.69
1074.377	35.69
1074.622	14.69
1074.867	-108.31
1075.112	-32.31
1075.357	153.69
1075.601	-1.31
1075.846	-63.31
1076.091	25.69
1076.336	69.69
1076.581	-65.31
1076.826	-172.31
1077.071	-81.31
1077.315	179.69
1077.56	97.69
1077.805	-109.31
1078.05	-70.31
1078.295	-12.31
1078.54	-38.31
1078.785	-161.31
1079.029	-110.31
1079.274	77.69
1079.519	-59.31
1079.764	-163.31
1080.009	-28.31
1080.253	53.69
1080.498	-58.31
1080.743	-201.31
1080.988	-58.31
1081.233	157.69
1081.478	92.69
1081.722	-108.31
1081.967	-1.31
1082.212	131.69
1082.457	22.69
1082.701	-105.31
1082.946	-77.31
1083.191	42.69
1083.436	-48.31
1083.681	-198.31
1083.925	-93.31
1084.17	0.69
1084.415	29.69
1084.66	-167.31
1084.904	-77.31
1085.149	11.69
1085.394	-27.31
1085.639	-207.31
1085.883	-101.31
1086.128	155.69
1086.373	166.69
1086.617	-66.31
1086.862	-143.31
1087.107	-18.31
1087.352	-54.31
1087.596	-138.31
1087.841	-7.31
1088.086	25.69
1088.33	1.69
1088.575	-232.31
1088.82	-90.31
1089.064	74.69
1089.309	-64.31
1089.554	-180.31
1089.798	-144.31
1090.043	43.69
1090.288	-15.31
1090.533	-186.31
1090.777	-120.31
1091.022	37.69
1091.266	62.69
1091.511	-107.31
1091.756	-23.31
1092	127.69
1092.245	100.69
1092.49	-146.31
1092.734	-92.31
1092.979	104.69
1093.224	-18.31
1093.468	-157.31
1093.713	-86.31
1093.957	24.69
1094.202	-40.31
1094.447	-220.31
1094.691	-105.31
1094.936	31.69
1095.181	-4.31
1095.425	-174.31
1095.67	-144.31
1095.914	7.69
1096.159	-7.31
1096.403	-149.31
1096.648	-44.31
1096.893	70.69
1097.137	-93.31
1097.382	-220.31
1097.626	-149.31
1097.871	26.69
1098.115	-32.31
1098.36	-199.31
1098.605	-112.31
1098.849	-37.31
1099.094	-111.31
1099.338	-191.31
1099.583	-95.31
1099.827	141.69
1100.072	42.69
1100.316	-165.31
1100.561	-104.31
1100.805	52.69
1101.05	10.69
1101.294	-169.31
1101.539	-152.31
1101.783	11.69
1102.028	-0.31
1102.273	-153.31
1102.517	-96.31
1102.761	53.69
1103.006	-57.31
1103.25	-278.31
1103.495	-161.31
1103.739	54.69
1103.984	98.69
1104.228	-96.31
1104.473	-16.31
1104.717	37.69
1104.962	5.69
1105.206	-113.31
1105.451	-141.31
1105.695	10.69
1105.94	-22.31
1106.184	-155.31
1106.429	-99.31
1106.673	9.69
1106.917	74.69
1107.162	-155.31
1107.406	-24.31
1107.651	122.69
1107.895	-81.31
1108.14	-191.31
1108.384	-93.31
1108.628	115.69
1108.873	113.69
1109.117	-120.31
1109.362	-116.31
1109.606	-19.31
1109.85	-30.31
1110.095	-159.31
1110.339	-94.31
1110.584	83.69
1110.828	22.69
1111.072	-101.31
1111.317	-123.31
1111.561	-8.31
1111.806	-14.31
1112.05	-167.31
1112.294	-75.31
1112.539	36.69
1112.783	-5.31
1113.027	-115.31
1113.272	-111.31
1113.516	-12.31
1113.76	-45.31
1114.005	-143.31
1114.249	-76.31
1114.493	78.69
1114.738	89.69
1114.982	-63.31
1115.226	-100.31
1115.471	-10.31
1115.715	-23.31
1115.959	-194.31
1116.204	-171.31
1116.448	-5.31
1116.692	-97.31
1116.937	-172.31
1117.181	-24.31
1117.425	-19.31
1117.67	-69.31
1117.914	-150.31
1118.158	-96.31
1118.402	140.69
1118.647	82.69
1118.891	-102.31
1119.135	-49.31
1119.38	92.69
1119.624	9.69
1119.868	-139.31
1120.112	-147.31
1120.357	-52.31
1120.601	-115.31
1120.845	-216.31
1121.089	-145.31
1121.334	50.69
