Data from HR4C21111__8__09-41-10-162.txt Node

Date: Mon Feb 22 09:41:10 IST 2021
User: Kapil
Spectrometer: HR4C2111
Trigger mode: 4
Integration Time (sec): 2.300000E0
Scans to average: 1
Electric dark correction enabled: true
Nonlinearity correction enabled: false
Boxcar width: 0
XAxis mode: Wavelengths
Number of Pixels in Spectrum: 3648
>>>>>Begin Spectral Data<<<<<
189.472	-439.38
189.745	-439.38
190.017	-439.38
190.289	-461.38
190.561	-293.38
190.834	-30.38
191.106	-115.38
191.378	17.62
191.65	9.62
191.923	-138.38
192.195	-92.38
192.467	122.62
192.739	106.62
193.011	-25.38
193.284	83.62
193.556	179.62
193.828	-10.38
194.1	-107.38
194.372	-120.38
194.644	57.62
194.916	66.62
195.188	-154.38
195.46	-88.38
195.732	55.62
196.004	-4.38
196.276	-112.38
196.548	-65.38
196.82	84.62
197.092	53.62
197.364	-142.38
197.636	-91.38
197.908	27.62
198.18	-40.38
198.452	-89.38
198.724	-40.38
198.996	56.62
199.268	66.62
199.54	-36.38
199.811	-120.38
200.083	90.62
200.355	14.62
200.627	-184.38
200.899	-65.38
201.171	54.62
201.442	-53.38
201.714	-185.38
201.986	-111.38
202.258	58.62
202.529	107.62
202.801	1.62
203.073	74.62
203.345	178.62
203.616	0.62
203.888	-141.38
204.16	-145.38
204.431	75.62
204.703	-7.38
204.974	-135.38
205.246	1.62
205.518	180.62
205.789	8.62
206.061	-121.38
206.332	-101.38
206.604	7.62
206.876	88.62
207.147	117.62
207.419	21.62
207.69	138.62
207.962	-28.38
208.233	-179.38
208.505	14.62
208.776	186.62
209.047	85.62
209.319	-123.38
209.59	-86.38
209.862	151.62
210.133	54.62
210.404	-146.38
210.676	-94.38
210.947	97.62
211.219	72.62
211.49	-123.38
211.761	-52.38
212.033	33.62
212.304	-34.38
212.575	-180.38
212.846	-78.38
213.118	20.62
213.389	-54.38
213.66	-104.38
213.931	-50.38
214.203	32.62
214.474	-35.38
214.745	-119.38
215.016	138.62
215.287	434.62
215.559	70.62
215.83	-106.38
216.101	-58.38
216.372	16.62
216.643	81.62
216.914	4.62
217.185	-81.38
217.456	146.62
217.727	13.62
217.998	-155.38
218.269	-57.38
218.54	34.62
218.811	-16.38
219.082	-116.38
219.353	-77.38
219.624	-8.38
219.895	-30.38
220.166	-140.38
220.437	-109.38
220.708	93.62
220.979	-6.38
221.25	-138.38
221.521	-90.38
221.792	20.62
222.063	69.62
222.334	28.62
222.604	167.62
222.875	159.62
223.146	81.62
223.417	-173.38
223.688	-24.38
223.958	131.62
224.229	-42.38
224.5	-182.38
224.771	-73.38
225.041	90.62
225.312	54.62
225.583	-80.38
225.854	-50.38
226.124	85.62
226.395	-5.38
226.666	-130.38
226.936	-113.38
227.207	68.62
227.478	-47.38
227.748	-114.38
228.019	40.62
228.289	234.62
228.56	-16.38
228.831	-29.38
229.101	42.62
229.372	53.62
229.642	-22.38
229.913	-164.38
230.183	-125.38
230.454	-3.38
230.724	-13.38
230.995	-102.38
231.265	-54.38
231.536	69.62
231.806	39.62
232.076	-107.38
232.347	-105.38
232.617	34.62
232.888	25.62
233.158	-69.38
233.428	-119.38
233.699	-8.38
233.969	-47.38
234.239	-159.38
234.51	-81.38
234.78	45.62
235.05	-9.38
235.321	-110.38
235.591	-69.38
235.861	59.62
236.131	-40.38
236.402	-188.38
236.672	-85.38
236.942	50.62
237.212	59.62
237.483	-48.38
237.753	16.62
238.023	167.62
238.293	23.62
238.563	-65.38
238.833	-99.38
239.103	62.62
239.374	-14.38
239.644	-140.38
239.914	-30.38
240.184	135.62
240.454	-9.38
240.724	-173.38
240.994	-63.38
241.264	22.62
241.534	56.62
241.804	-6.38
242.074	-76.38
242.344	-23.38
242.614	-49.38
242.884	-179.38
243.154	-126.38
243.424	44.62
243.694	76.62
243.964	-98.38
244.234	-77.38
244.503	136.62
244.773	34.62
245.043	-202.38
245.313	-128.38
245.583	118.62
245.853	93.62
246.123	-168.38
246.392	-102.38
246.662	10.62
246.932	-15.38
247.202	-174.38
247.471	-58.38
247.741	272.62
248.011	112.62
248.281	-143.38
248.55	-85.38
248.82	71.62
249.09	3.62
249.359	-79.38
249.629	-68.38
249.899	55.62
250.168	41.62
250.438	-41.38
250.708	-100.38
250.977	79.62
251.247	55.62
251.516	-119.38
251.786	-57.38
252.055	123.62
252.325	26.62
252.595	-105.38
252.864	-72.38
253.134	35.62
253.403	-25.38
253.673	-160.38
253.942	-108.38
254.212	25.62
254.481	-11.38
254.75	-150.38
255.02	-94.38
255.289	63.62
255.559	-18.38
255.828	-112.38
256.097	-16.38
256.367	38.62
256.636	-53.38
256.906	-142.38
257.175	-7.38
257.444	246.62
257.714	57.62
257.983	-80.38
258.252	-45.38
258.521	10.62
258.791	57.62
259.06	-94.38
259.329	-42.38
259.598	72.62
259.868	-9.38
260.137	-116.38
260.406	9.62
260.675	95.62
260.944	28.62
261.214	-134.38
261.483	-46.38
261.752	179.62
262.021	17.62
262.29	-154.38
262.559	-124.38
262.828	19.62
263.097	-36.38
263.366	-196.38
263.635	-90.38
263.905	131.62
264.174	11.62
264.443	-202.38
264.712	-100.38
264.981	40.62
265.25	-37.38
265.519	-141.38
265.788	-137.38
266.057	34.62
266.325	60.62
266.594	-45.38
266.863	-105.38
267.132	37.62
267.401	11.62
267.67	-186.38
267.939	-122.38
268.208	36.62
268.477	57.62
268.745	-125.38
269.014	-98.38
269.283	124.62
269.552	34.62
269.821	-103.38
270.089	-2.38
270.358	17.62
270.627	-5.38
270.896	-128.38
271.164	-141.38
271.433	28.62
271.702	101.62
271.971	-137.38
272.239	-133.38
272.508	38.62
272.777	-28.38
273.045	-31.38
273.314	-38.38
273.583	101.62
273.851	-5.38
274.12	-147.38
274.388	-126.38
274.657	-0.38
274.926	-1.38
275.194	-161.38
275.463	-75.38
275.731	44.62
276	194.62
276.268	396.62
276.537	-73.38
276.805	34.62
277.074	52.62
277.342	-156.38
277.611	-93.38
277.879	112.62
278.148	30.62
278.416	-147.38
278.684	-128.38
278.953	-17.38
279.221	-40.38
279.49	-196.38
279.758	-94.38
280.026	-8.38
280.295	-16.38
280.563	-127.38
280.831	984.62
281.1	2379.62
281.368	220.62
281.636	-82.38
281.904	-112.38
282.173	-2.38
282.441	-46.38
282.709	-84.38
282.977	41.62
283.246	43.62
283.514	-34.38
283.782	-66.38
284.05	23.62
284.318	73.62
284.587	-18.38
284.855	-104.38
285.123	-36.38
285.391	73.62
285.659	47.62
285.927	-137.38
286.195	-62.38
286.463	69.62
286.732	-3.38
287	-115.38
287.268	-50.38
287.536	29.62
287.804	-41.38
288.072	-147.38
288.34	-80.38
288.608	80.62
288.876	-18.38
289.144	-117.38
289.412	-15.38
289.68	52.62
289.948	-16.38
290.215	-106.38
290.483	-94.38
290.751	91.62
291.019	87.62
291.287	-172.38
291.555	-103.38
291.823	30.62
292.091	-16.38
292.358	-68.38
292.626	-11.38
292.894	86.62
293.162	46.62
293.43	-89.38
293.697	-77.38
293.965	47.62
294.233	-32.38
294.501	-172.38
294.768	-72.38
295.036	82.62
295.304	36.62
295.572	-142.38
295.839	-90.38
296.107	97.62
296.375	-3.38
296.642	-131.38
296.91	-117.38
297.178	52.62
297.445	181.62
297.713	103.62
297.98	-70.38
298.248	-19.38
298.516	-37.38
298.783	-118.38
299.051	-114.38
299.318	16.62
299.586	-33.38
299.853	-86.38
300.121	-89.38
300.388	51.62
300.656	-10.38
300.923	-153.38
301.191	-39.38
301.458	66.62
301.726	-7.38
301.993	-148.38
302.26	-86.38
302.528	49.62
302.795	-5.38
303.063	-65.38
303.33	-44.38
303.597	45.62
303.865	37.62
304.132	-105.38
304.399	-112.38
304.667	-9.38
304.934	19.62
305.201	-101.38
305.469	-23.38
305.736	52.62
306.003	40.62
306.27	-47.38
306.538	-93.38
306.805	-8.38
307.072	-20.38
307.339	-99.38
307.606	-43.38
307.874	172.62
308.141	75.62
308.408	-131.38
308.675	-101.38
308.942	-30.38
309.209	-67.38
309.477	-132.38
309.744	-83.38
310.011	32.62
310.278	41.62
310.545	-20.38
310.812	-37.38
311.079	149.62
311.346	189.62
311.613	43.62
311.88	-41.38
312.147	-51.38
312.414	-36.38
312.681	-116.38
312.948	-24.38
313.215	136.62
313.482	99.62
313.749	-87.38
314.016	-179.38
314.283	-38.38
314.55	61.62
314.817	-83.38
315.083	-115.38
315.35	-88.38
315.617	-134.38
315.884	-140.38
316.151	55.62
316.418	173.62
316.684	-11.38
316.951	-180.38
317.218	-103.38
317.485	2.62
317.752	-46.38
318.018	-112.38
318.285	-6.38
318.552	18.62
318.819	-52.38
319.085	-141.38
319.352	-66.38
319.619	28.62
319.885	-13.38
320.152	-184.38
320.419	-100.38
320.685	31.62
320.952	-34.38
321.219	-68.38
321.485	52.62
321.752	26.62
322.019	-43.38
322.285	18.62
322.552	-21.38
322.818	131.62
323.085	-11.38
323.351	-126.38
323.618	-16.38
323.884	53.62
324.151	-70.38
324.417	-40.38
324.684	-65.38
324.95	-39.38
325.217	-138.38
325.483	-165.38
325.75	-17.38
326.016	17.62
326.283	-18.38
326.549	-183.38
326.815	-66.38
327.082	110.62
327.348	17.62
327.615	-104.38
327.881	-35.38
328.147	117.62
328.414	129.62
328.68	24.62
328.946	-41.38
329.212	27.62
329.479	6.62
329.745	-104.38
330.011	-100.38
330.278	18.62
330.544	-33.38
330.81	-32.38
331.076	-35.38
331.342	-33.38
331.609	-29.38
331.875	-94.38
332.141	-82.38
332.407	40.62
332.673	12.62
332.94	-12.38
333.206	-37.38
333.472	52.62
333.738	79.62
334.004	-102.38
334.27	-7.38
334.536	10.62
334.802	-42.38
335.068	-83.38
335.334	7.62
335.6	21.62
335.866	-26.38
336.132	-158.38
336.398	-87.38
336.664	-26.38
336.93	-28.38
337.196	-84.38
337.462	-28.38
337.728	34.62
337.994	-24.38
338.26	-88.38
338.526	-40.38
338.792	-41.38
339.058	-42.38
339.324	-130.38
339.59	-10.38
339.856	58.62
340.121	-49.38
340.387	-111.38
340.653	100.62
340.919	155.62
341.185	61.62
341.45	-67.38
341.716	30.62
341.982	117.62
342.248	-52.38
342.514	-82.38
342.779	-0.38
343.045	37.62
343.311	-9.38
343.576	-88.38
343.842	-26.38
344.108	139.62
344.374	28.62
344.639	-110.38
344.905	-99.38
345.171	52.62
345.436	-57.38
345.702	-93.38
345.967	67.62
346.233	95.62
346.499	21.62
346.764	-168.38
347.03	-68.38
347.295	-34.38
347.561	8.62
347.826	-34.38
348.092	-106.38
348.357	-27.38
348.623	-6.38
348.888	-110.38
349.154	-85.38
349.419	52.62
349.685	16.62
349.95	-56.38
350.216	-40.38
350.481	44.62
350.747	-44.38
351.012	-159.38
351.277	-91.38
351.543	37.62
351.808	-27.38
352.074	-178.38
352.339	-118.38
352.604	38.62
352.87	17.62
353.135	-102.38
353.4	-59.38
353.666	16.62
353.931	6.62
354.196	-117.38
354.461	-98.38
354.727	52.62
354.992	30.62
355.257	-112.38
355.522	-4.38
355.788	20.62
356.053	73.62
356.318	-73.38
356.583	-81.38
356.848	121.62
357.113	233.62
357.379	-29.38
357.644	-60.38
357.909	110.62
358.174	148.62
358.439	-88.38
358.704	-35.38
358.969	69.62
359.234	94.62
359.499	-64.38
359.765	9.62
360.03	133.62
360.295	131.62
360.56	-47.38
360.825	18.62
361.09	220.62
361.355	46.62
361.62	-0.38
361.885	33.62
362.15	26.62
362.415	73.62
362.679	-4.38
362.944	145.62
363.209	166.62
363.474	172.62
363.739	95.62
364.004	8.62
364.269	87.62
364.534	146.62
364.799	94.62
365.063	106.62
365.328	226.62
365.593	210.62
365.858	75.62
366.123	62.62
366.387	206.62
366.652	157.62
366.917	58.62
367.182	130.62
367.447	268.62
367.711	219.62
367.976	155.62
368.241	228.62
368.505	282.62
368.77	197.62
369.035	185.62
369.299	229.62
369.564	250.62
369.829	204.62
370.093	174.62
370.358	186.62
370.623	309.62
370.887	331.62
371.152	193.62
371.416	250.62
371.681	287.62
371.946	215.62
372.21	195.62
372.475	337.62
372.739	389.62
373.004	317.62
373.268	301.62
373.533	365.62
373.797	438.62
374.062	429.62
374.326	280.62
374.591	373.62
374.855	457.62
375.12	392.62
375.384	260.62
375.648	357.62
375.913	498.62
376.177	520.62
376.442	388.62
376.706	414.62
376.97	579.62
377.235	533.62
377.499	509.62
377.763	529.62
378.028	526.62
378.292	567.62
378.556	503.62
378.821	455.62
379.085	546.62
379.349	508.62
379.614	474.62
379.878	604.62
380.142	778.62
380.406	694.62
380.671	707.62
380.935	863.62
381.199	954.62
381.463	829.62
381.727	804.62
381.991	761.62
382.256	850.62
382.52	811.62
382.784	851.62
383.048	995.62
383.312	944.62
383.576	931.62
383.84	837.62
384.104	882.62
384.369	987.62
384.633	942.62
384.897	847.62
385.161	983.62
385.425	1111.62
385.689	1061.62
385.953	1030.62
386.217	1024.62
386.481	1125.62
386.745	1187.62
387.009	1147.62
387.273	1107.62
387.537	1168.62
387.801	1227.62
388.064	1183.62
388.328	1299.62
388.592	1333.62
388.856	1291.62
389.12	1247.62
389.384	1341.62
389.648	1380.62
389.912	1458.62
390.176	1467.62
390.439	1585.62
390.703	1420.62
390.967	1406.62
391.231	1352.62
391.495	1429.62
391.758	1534.62
392.022	1594.62
392.286	1463.62
392.55	1485.62
392.813	1613.62
393.077	1679.62
393.341	1623.62
393.605	1714.62
393.868	1687.62
394.132	1702.62
394.396	1670.62
394.659	1829.62
394.923	1788.62
395.187	1746.62
395.45	1768.62
395.714	1823.62
395.978	1863.62
396.241	1880.62
396.505	1800.62
396.768	1886.62
397.032	1964.62
397.295	2001.62
397.559	1951.62
397.823	1910.62
398.086	2028.62
398.35	1993.62
398.613	1925.62
398.877	2043.62
399.14	2207.62
399.404	2239.62
399.667	2159.62
399.931	2134.62
400.194	2230.62
400.457	2217.62
400.721	2217.62
400.984	2331.62
401.248	2281.62
401.511	2245.62
401.775	2186.62
402.038	2254.62
402.301	2447.62
402.565	2428.62
402.828	2269.62
403.091	2346.62
403.355	2494.62
403.618	2463.62
403.881	2461.62
404.145	2507.62
404.408	2587.62
404.671	2539.62
404.934	2577.62
405.198	2606.62
405.461	2596.62
405.724	2661.62
405.987	2701.62
406.251	2760.62
406.514	2880.62
406.777	2740.62
407.04	2671.62
407.303	2659.62
407.567	2780.62
407.83	2894.62
408.093	2712.62
408.356	2841.62
408.619	2935.62
408.882	2961.62
409.145	2872.62
409.408	2870.62
409.672	2987.62
409.935	2910.62
410.198	2797.62
410.461	2895.62
410.724	3121.62
410.987	3044.62
411.25	2876.62
411.513	3011.62
411.776	3074.62
412.039	2960.62
412.302	2961.62
412.565	3006.62
412.828	3040.62
413.091	3067.62
413.354	2973.62
413.617	2936.62
413.879	2996.62
414.142	3055.62
414.405	2891.62
414.668	2935.62
414.931	3080.62
415.194	3030.62
415.457	2897.62
415.72	2985.62
415.983	3004.62
416.245	3035.62
416.508	2927.62
416.771	2845.62
417.034	3015.62
417.297	3018.62
417.559	2979.62
417.822	2975.62
418.085	3053.62
418.348	3016.62
418.61	2921.62
418.873	2937.62
419.136	2970.62
419.399	2958.62
419.661	2974.62
419.924	2935.62
420.187	3063.62
420.449	3053.62
420.712	3018.62
420.975	2984.62
421.237	3077.62
421.5	3133.62
421.762	3159.62
422.025	3174.62
422.288	3229.62
422.55	3041.62
422.813	2981.62
423.075	3133.62
423.338	3226.62
423.601	3287.62
423.863	3208.62
424.126	3239.62
424.388	3358.62
424.651	3311.62
424.913	3268.62
425.176	3308.62
425.438	3299.62
425.701	3312.62
425.963	3210.62
426.225	3226.62
426.488	3273.62
426.75	3292.62
427.013	3273.62
427.275	3325.62
427.538	3396.62
427.8	3432.62
428.062	3334.62
428.325	3371.62
428.587	3439.62
428.849	3409.62
429.112	3442.62
429.374	3392.62
429.636	3430.62
429.899	3542.62
430.161	3444.62
430.423	3470.62
430.686	3634.62
430.948	3574.62
431.21	3405.62
431.472	3385.62
431.735	3531.62
431.997	3550.62
432.259	3512.62
432.521	3388.62
432.783	3545.62
433.046	3553.62
433.308	3464.62
433.57	3525.62
433.832	3750.62
434.094	3586.62
434.356	3458.62
434.618	3573.62
434.881	3661.62
435.143	3688.62
435.405	3676.62
435.667	3661.62
435.929	3693.62
436.191	3655.62
436.453	3597.62
436.715	3708.62
436.977	3823.62
437.239	3866.62
437.501	3753.62
437.763	3742.62
438.025	3877.62
438.287	3795.62
438.549	3759.62
438.811	3726.62
439.073	3742.62
439.335	3803.62
439.597	3741.62
439.859	3721.62
440.121	3838.62
440.383	3755.62
440.645	3759.62
440.907	3803.62
441.168	3804.62
441.43	3794.62
441.692	3822.62
441.954	3914.62
442.216	3925.62
442.478	3836.62
442.74	3710.62
443.001	3866.62
443.263	4049.62
443.525	3914.62
443.787	3782.62
444.048	3772.62
444.31	3786.62
444.572	3853.62
444.834	3840.62
445.095	3821.62
445.357	3992.62
445.619	3824.62
445.881	3701.62
446.142	3791.62
446.404	3830.62
446.666	3866.62
446.927	3851.62
447.189	3973.62
447.451	4032.62
447.712	3859.62
447.974	3702.62
448.235	3767.62
448.497	3893.62
448.759	3808.62
449.02	3770.62
449.282	3761.62
449.543	3944.62
449.805	3962.62
450.066	3746.62
450.328	3842.62
450.59	4026.62
450.851	3837.62
451.113	3716.62
451.374	3709.62
451.636	3933.62
451.897	3980.62
452.158	3899.62
452.42	3966.62
452.681	3982.62
452.943	3809.62
453.204	3827.62
453.466	3848.62
453.727	3846.62
453.988	3878.62
454.25	3782.62
454.511	3803.62
454.773	3904.62
455.034	4049.62
455.295	3740.62
455.557	3847.62
455.818	3911.62
456.079	3898.62
456.341	4020.62
456.602	4064.62
456.863	4066.62
457.124	3953.62
457.386	3828.62
457.647	3884.62
457.908	3975.62
458.169	4054.62
458.431	3909.62
458.692	3978.62
458.953	4008.62
459.214	3982.62
459.476	4145.62
459.737	4257.62
459.998	4271.62
460.259	4098.62
460.52	4012.62
460.781	4186.62
461.043	4367.62
461.304	4279.62
461.565	4073.62
461.826	4092.62
462.087	4278.62
462.348	4424.62
462.609	4366.62
462.87	4349.62
463.131	4258.62
463.392	4473.62
463.653	4505.62
463.914	4499.62
464.175	4511.62
464.436	4517.62
464.697	4525.62
464.958	4407.62
465.219	4476.62
465.48	4557.62
465.741	4616.62
466.002	4521.62
466.263	4702.62
466.524	4706.62
466.785	4587.62
467.046	4644.62
467.307	4803.62
467.568	4860.62
467.829	4824.62
468.089	4809.62
468.35	4908.62
468.611	4838.62
468.872	4763.62
469.133	4979.62
469.394	5149.62
469.655	5219.62
469.915	5095.62
470.176	4966.62
470.437	5071.62
470.698	5196.62
470.958	5205.62
471.219	5251.62
471.48	5389.62
471.741	5464.62
472.001	5403.62
472.262	5383.62
472.523	5643.62
472.784	5747.62
473.044	5579.62
473.305	5631.62
473.566	5691.62
473.826	5791.62
474.087	5747.62
474.348	5808.62
474.608	5983.62
474.869	5956.62
475.129	5874.62
475.39	5976.62
475.651	6133.62
475.911	6234.62
476.172	6120.62
476.432	6235.62
476.693	6483.62
476.953	6399.62
477.214	6431.62
477.475	6498.62
477.735	6485.62
477.996	6599.62
478.256	6458.62
478.517	6577.62
478.777	6745.62
479.038	6874.62
479.298	6926.62
479.558	6878.62
479.819	7021.62
480.079	7070.62
480.34	7101.62
480.6	7095.62
480.861	7218.62
481.121	7221.62
481.381	7163.62
481.642	7309.62
481.902	7361.62
482.162	7344.62
482.423	7338.62
482.683	7458.62
482.943	7615.62
483.204	7557.62
483.464	7510.62
483.724	7534.62
483.985	7648.62
484.245	7803.62
484.505	7757.62
484.765	7860.62
485.026	7909.62
485.286	8026.62
485.546	7990.62
485.806	8014.62
486.067	8063.62
486.327	7999.62
486.587	7971.62
486.847	8028.62
487.107	8170.62
487.368	8217.62
487.628	8153.62
487.888	8240.62
488.148	8371.62
488.408	8274.62
488.668	8299.62
488.928	8317.62
489.188	8354.62
489.449	8393.62
489.709	8330.62
489.969	8394.62
490.229	8491.62
490.489	8498.62
490.749	8413.62
491.009	8366.62
491.269	8461.62
491.529	8503.62
491.789	8461.62
492.049	8594.62
492.309	8665.62
492.569	8546.62
492.829	8550.62
493.089	8529.62
493.349	8701.62
493.609	8622.62
493.869	8483.62
494.129	8602.62
494.389	8719.62
494.648	8623.62
494.908	8581.62
495.168	8683.62
495.428	8747.62
495.688	8695.62
495.948	8573.62
496.208	8627.62
496.467	8731.62
496.727	8733.62
496.987	8760.62
497.247	8752.62
497.507	8783.62
497.767	8821.62
498.026	8685.62
498.286	8816.62
498.546	8948.62
498.806	8816.62
499.065	8908.62
499.325	8757.62
499.585	8782.62
499.845	8834.62
500.104	8844.62
500.364	8881.62
500.624	8823.62
500.883	8811.62
501.143	8871.62
501.403	8918.62
501.662	9038.62
501.922	8942.62
502.182	8688.62
502.441	8691.62
502.701	8763.62
502.96	8920.62
503.22	8850.62
503.48	8790.62
503.739	8863.62
503.999	8798.62
504.258	8734.62
504.518	8831.62
504.777	8853.62
505.037	8852.62
505.296	8794.62
505.556	8773.62
505.815	8939.62
506.075	9010.62
506.334	8917.62
506.594	8700.62
506.853	8742.62
507.113	8820.62
507.372	8661.62
507.632	8716.62
507.891	8895.62
508.151	8941.62
508.41	8783.62
508.669	8815.62
508.929	8869.62
509.188	8837.62
509.447	8839.62
509.707	8780.62
509.966	8834.62
510.226	8830.62
510.485	8787.62
510.744	8875.62
511.004	8962.62
511.263	8787.62
511.522	8728.62
511.781	8732.62
512.041	8873.62
512.3	8900.62
512.559	8915.62
512.818	8925.62
513.078	8903.62
513.337	8859.62
513.596	8739.62
513.855	8787.62
514.115	8873.62
514.374	8857.62
514.633	8748.62
514.892	8790.62
515.151	8953.62
515.41	8981.62
515.67	8861.62
515.929	8807.62
516.188	8939.62
516.447	8923.62
516.706	8827.62
516.965	8905.62
517.224	8946.62
517.483	8927.62
517.743	8791.62
518.002	8827.62
518.261	8958.62
518.52	9023.62
518.779	8899.62
519.038	8853.62
519.297	8954.62
519.556	8909.62
519.815	8770.62
520.074	8838.62
520.333	8973.62
520.592	8956.62
520.851	8792.62
521.11	8926.62
521.369	9057.62
521.628	8917.62
521.887	8801.62
522.145	8831.62
522.404	8868.62
522.663	8890.62
522.922	8767.62
523.181	8782.62
523.44	8885.62
523.699	8945.62
523.958	8784.62
524.217	8751.62
524.475	8827.62
524.734	8844.62
524.993	8829.62
525.252	8842.62
525.511	8904.62
525.769	8819.62
526.028	8715.62
526.287	8798.62
526.546	8900.62
526.805	8893.62
527.063	8751.62
527.322	8721.62
527.581	8807.62
527.839	8790.62
528.098	8750.62
528.357	8739.62
528.616	8812.62
528.874	8851.62
529.133	8760.62
529.392	8813.62
529.65	8791.62
529.909	8733.62
530.168	8626.62
530.426	8714.62
530.685	8871.62
530.943	8800.62
531.202	8642.62
531.461	8627.62
531.719	8830.62
531.978	8782.62
532.236	8651.62
532.495	8741.62
532.753	8808.62
533.012	8760.62
533.271	8692.62
533.529	8679.62
533.788	8781.62
534.046	8710.62
534.305	8657.62
534.563	8903.62
534.822	8940.62
535.08	8807.62
535.338	8700.62
535.597	8724.62
535.855	8780.62
536.114	8760.62
536.372	8695.62
536.631	8798.62
536.889	8872.62
537.147	8829.62
537.406	8636.62
537.664	8757.62
537.923	8842.62
538.181	8854.62
538.439	8641.62
538.698	8804.62
538.956	8811.62
539.214	8819.62
539.473	8734.62
539.731	8819.62
539.989	8998.62
540.248	8853.62
540.506	8800.62
540.764	8834.62
541.022	8943.62
541.281	9039.62
541.539	8923.62
541.797	8940.62
542.055	9059.62
542.314	9109.62
542.572	9093.62
542.83	8969.62
543.088	9066.62
543.346	9064.62
543.604	8959.62
543.863	9090.62
544.121	9223.62
544.379	9116.62
544.637	9019.62
544.895	9170.62
545.153	9302.62
545.411	9175.62
545.67	9020.62
545.928	9147.62
546.186	9284.62
546.444	9321.62
546.702	9328.62
546.96	9431.62
547.218	9455.62
547.476	9381.62
547.734	9300.62
547.992	9399.62
548.25	9560.62
548.508	9500.62
548.766	9519.62
549.024	9529.62
549.282	9622.62
549.54	9687.62
549.798	9675.62
550.056	9727.62
550.314	9819.62
550.572	9723.62
550.83	9635.62
551.088	9738.62
551.346	9925.62
551.603	9976.62
551.861	9875.62
552.119	9932.62
552.377	10012.62
552.635	9968.62
552.893	9939.62
553.151	9983.62
553.409	10134.62
553.666	10188.62
553.924	10081.62
554.182	10090.62
554.44	10240.62
554.698	10325.62
554.955	10209.62
555.213	10201.62
555.471	10393.62
555.729	10310.62
555.986	10149.62
556.244	10255.62
556.502	10531.62
556.76	10422.62
557.017	10394.62
557.275	10483.62
557.533	10602.62
557.79	10546.62
558.048	10428.62
558.306	10560.62
558.563	10599.62
558.821	10553.62
559.079	10569.62
559.336	10619.62
559.594	10536.62
559.852	10476.62
560.109	10532.62
560.367	10706.62
560.624	10764.62
560.882	10689.62
561.14	10724.62
561.397	10827.62
561.655	10736.62
561.912	10758.62
562.17	10658.62
562.427	10698.62
562.685	10788.62
562.942	10786.62
563.2	10702.62
563.457	10725.62
563.715	10770.62
563.972	10816.62
564.23	10642.62
564.487	10659.62
564.745	10785.62
565.002	10777.62
565.26	10681.62
565.517	10679.62
565.774	10787.62
566.032	10947.62
566.289	10802.62
566.547	10763.62
566.804	10861.62
567.061	10778.62
567.319	10673.62
567.576	10769.62
567.833	10804.62
568.091	10803.62
568.348	10769.62
568.605	10782.62
568.863	10720.62
569.12	10710.62
569.377	10659.62
569.635	10623.62
569.892	10665.62
570.149	10553.62
570.406	10447.62
570.664	10514.62
570.921	10703.62
571.178	10546.62
571.435	10475.62
571.693	10494.62
571.95	10546.62
572.207	10459.62
572.464	10310.62
572.721	10453.62
572.979	10516.62
573.236	10396.62
573.493	10281.62
573.75	10246.62
574.007	10303.62
574.264	10255.62
574.521	10161.62
574.779	10131.62
575.036	10210.62
575.293	10170.62
575.55	10042.62
575.807	10011.62
576.064	10023.62
576.321	9972.62
576.578	9823.62
576.835	9791.62
577.092	9978.62
577.349	9850.62
577.606	9613.62
577.863	9651.62
578.12	9769.62
578.377	9732.62
578.634	9481.62
578.891	9548.62
579.148	9615.62
579.405	9459.62
579.662	9340.62
579.919	9414.62
580.176	9389.62
580.433	9286.62
580.69	9195.62
580.947	9216.62
581.204	9246.62
581.461	9068.62
581.717	8874.62
581.974	9060.62
582.231	9131.62
582.488	8899.62
582.745	8664.62
583.002	8749.62
583.259	8883.62
583.515	8775.62
583.772	8614.62
584.029	8619.62
584.286	8674.62
584.543	8445.62
584.799	8346.62
585.056	8378.62
585.313	8450.62
585.57	8441.62
585.826	8223.62
586.083	8338.62
586.34	8469.62
586.597	8237.62
586.853	8044.62
587.11	8024.62
587.367	8143.62
587.623	8148.62
587.88	8007.62
588.137	7876.62
588.393	7973.62
588.65	7837.62
588.907	7783.62
589.163	7845.62
589.42	7782.62
589.677	7692.62
589.933	7592.62
590.19	7632.62
590.446	7752.62
590.703	7718.62
590.96	7473.62
591.216	7488.62
591.473	7513.62
591.729	7458.62
591.986	7445.62
592.242	7504.62
592.499	7627.62
592.755	7408.62
593.012	7258.62
593.268	7311.62
593.525	7331.62
593.781	7357.62
594.038	7284.62
594.294	7277.62
594.551	7225.62
594.807	7172.62
595.064	7202.62
595.32	7175.62
595.576	7231.62
595.833	7210.62
596.089	7129.62
596.346	7191.62
596.602	7211.62
596.858	7295.62
597.115	7169.62
597.371	7147.62
597.628	7165.62
597.884	7063.62
598.14	6947.62
598.397	7113.62
598.653	7210.62
598.909	7086.62
599.166	6923.62
599.422	6951.62
599.678	7037.62
599.934	7042.62
600.191	6926.62
600.447	6950.62
600.703	6966.62
600.959	6909.62
601.216	6712.62
601.472	6827.62
601.728	6977.62
601.984	6889.62
602.241	6790.62
602.497	6844.62
602.753	6948.62
603.009	6870.62
603.265	6819.62
603.521	6932.62
603.778	7025.62
604.034	6856.62
604.29	6785.62
604.546	6861.62
604.802	6964.62
605.058	6861.62
605.314	6789.62
605.571	6800.62
605.827	6821.62
606.083	6836.62
606.339	6816.62
606.595	6885.62
606.851	6942.62
607.107	6936.62
607.363	6754.62
607.619	6766.62
607.875	6949.62
608.131	6883.62
608.387	6601.62
608.643	6654.62
608.899	6744.62
609.155	6718.62
609.411	6680.62
609.667	6716.62
609.923	6759.62
610.179	6691.62
610.435	6537.62
610.691	6620.62
610.947	6776.62
611.203	6681.62
611.459	6603.62
611.714	6698.62
611.97	6830.62
612.226	6738.62
612.482	6518.62
612.738	6597.62
612.994	6846.62
613.25	6648.62
613.505	6518.62
613.761	6522.62
614.017	6565.62
614.273	6596.62
614.529	6494.62
614.785	6408.62
615.04	6540.62
615.296	6540.62
615.552	6512.62
615.808	6481.62
616.063	6549.62
616.319	6510.62
616.575	6337.62
616.831	6455.62
617.086	6680.62
617.342	6579.62
617.598	6470.62
617.854	6508.62
618.109	6535.62
618.365	6365.62
618.621	6276.62
618.876	6354.62
619.132	6445.62
619.388	6380.62
619.643	6206.62
619.899	6295.62
620.155	6361.62
620.41	6327.62
620.666	6168.62
620.921	6201.62
621.177	6357.62
621.433	6411.62
621.688	6257.62
621.944	6181.62
622.199	6232.62
622.455	6239.62
622.71	6100.62
622.966	6149.62
623.221	6136.62
623.477	6091.62
623.732	6065.62
623.988	5969.62
624.243	6077.62
624.499	6061.62
624.754	5966.62
625.01	5984.62
625.265	6081.62
625.521	6133.62
625.776	6018.62
626.032	5982.62
626.287	6043.62
626.543	6000.62
626.798	5833.62
627.053	5816.62
627.309	5901.62
627.564	5814.62
627.82	5820.62
628.075	5913.62
628.33	5803.62
628.586	5701.62
628.841	5587.62
629.096	5678.62
629.352	5784.62
629.607	5741.62
629.862	5634.62
630.118	5691.62
630.373	5656.62
630.628	5667.62
630.884	5509.62
631.139	5555.62
631.394	5677.62
631.649	5615.62
631.905	5473.62
632.16	5583.62
632.415	5758.62
632.67	5554.62
632.926	5351.62
633.181	5350.62
633.436	5521.62
633.691	5437.62
633.946	5302.62
634.202	5282.62
634.457	5388.62
634.712	5397.62
634.967	5226.62
635.222	5180.62
635.477	5295.62
635.733	5290.62
635.988	5189.62
636.243	5231.62
636.498	5339.62
636.753	5250.62
637.008	5059.62
637.263	5145.62
637.518	5255.62
637.773	5241.62
638.028	5087.62
638.283	5113.62
638.539	5187.62
638.794	5141.62
639.049	4936.62
639.304	4929.62
639.559	5047.62
639.814	4998.62
640.069	4945.62
640.324	4983.62
640.579	5080.62
640.834	4973.62
641.089	4813.62
641.344	4907.62
641.598	5112.62
641.853	4972.62
642.108	4776.62
642.363	4777.62
642.618	4943.62
642.873	4814.62
643.128	4658.62
643.383	4694.62
643.638	4789.62
643.893	4868.62
644.148	4797.62
644.402	4750.62
644.657	4814.62
644.912	4722.62
645.167	4674.62
645.422	4710.62
645.677	4713.62
645.931	4717.62
646.186	4676.62
646.441	4566.62
646.696	4564.62
646.951	4603.62
647.205	4558.62
647.46	4539.62
647.715	4542.62
647.97	4698.62
648.224	4798.62
648.479	4622.62
648.734	4705.62
648.989	4636.62
649.243	4524.62
649.498	4489.62
649.753	4524.62
650.007	4589.62
650.262	4455.62
650.517	4412.62
650.771	4442.62
651.026	4415.62
651.281	4307.62
651.535	4413.62
651.79	4449.62
652.045	4434.62
652.299	4324.62
652.554	4343.62
652.809	4457.62
653.063	4555.62
653.318	4431.62
653.572	4337.62
653.827	4447.62
654.081	4366.62
654.336	4246.62
654.591	4234.62
654.845	4339.62
655.1	4272.62
655.354	4255.62
655.609	4324.62
655.863	4434.62
656.118	4402.62
656.372	4212.62
656.627	4214.62
656.881	4334.62
657.136	4285.62
657.39	4182.62
657.645	4290.62
657.899	4405.62
658.153	4273.62
658.408	4183.62
658.662	4225.62
658.917	4248.62
659.171	4172.62
659.426	4098.62
659.68	4108.62
659.934	4206.62
660.189	4211.62
660.443	4125.62
660.697	4267.62
660.952	4354.62
661.206	4218.62
661.46	4067.62
661.715	4126.62
661.969	4281.62
662.223	4251.62
662.478	4141.62
662.732	4230.62
662.986	4286.62
663.241	4261.62
663.495	4126.62
663.749	4177.62
664.003	4310.62
664.258	4226.62
664.512	4132.62
664.766	4205.62
665.02	4242.62
665.275	4279.62
665.529	4092.62
665.783	4146.62
666.037	4245.62
666.291	4230.62
666.546	4135.62
666.8	4189.62
667.054	4173.62
667.308	4220.62
667.562	4098.62
667.816	4148.62
668.071	4232.62
668.325	4159.62
668.579	4179.62
668.833	4242.62
669.087	4364.62
669.341	4257.62
669.595	4219.62
669.849	4230.62
670.103	4269.62
670.357	4247.62
670.612	4212.62
670.866	4215.62
671.12	4326.62
671.374	4318.62
671.628	4241.62
671.882	4219.62
672.136	4341.62
672.39	4373.62
672.644	4190.62
672.898	4339.62
673.152	4507.62
673.406	4410.62
673.66	4287.62
673.914	4349.62
674.168	4417.62
674.422	4395.62
674.675	4313.62
674.929	4361.62
675.183	4430.62
675.437	4383.62
675.691	4375.62
675.945	4458.62
676.199	4562.62
676.453	4390.62
676.707	4287.62
676.961	4298.62
677.214	4448.62
677.468	4502.62
677.722	4486.62
677.976	4440.62
678.23	4503.62
678.484	4511.62
678.737	4424.62
678.991	4449.62
679.245	4521.62
679.499	4520.62
679.753	4433.62
680.006	4529.62
680.26	4676.62
680.514	4668.62
680.768	4479.62
681.021	4503.62
681.275	4556.62
681.529	4569.62
681.783	4489.62
682.036	4559.62
682.29	4559.62
682.544	4579.62
682.797	4555.62
683.051	4513.62
683.305	4617.62
683.559	4648.62
683.812	4657.62
684.066	4680.62
684.32	4733.62
684.573	4666.62
684.827	4685.62
685.08	4684.62
685.334	4797.62
685.588	4706.62
685.841	4574.62
686.095	4716.62
686.348	4764.62
686.602	4781.62
686.856	4778.62
687.109	4732.62
687.363	4752.62
687.616	4699.62
687.87	4583.62
688.123	4647.62
688.377	4735.62
688.63	4807.62
688.884	4776.62
689.137	4847.62
689.391	4876.62
689.644	4778.62
689.898	4648.62
690.151	4709.62
690.405	4821.62
690.658	4754.62
690.912	4668.62
691.165	4722.62
691.419	4846.62
691.672	4853.62
691.926	4765.62
692.179	4754.62
692.432	4836.62
692.686	4789.62
692.939	4696.62
693.193	4788.62
693.446	4942.62
693.699	4928.62
693.953	4902.62
694.206	4883.62
694.459	4958.62
694.713	4995.62
694.966	4792.62
695.219	4845.62
695.473	4934.62
695.726	4817.62
695.979	4757.62
696.233	4878.62
696.486	4940.62
696.739	4923.62
696.992	4781.62
697.246	4872.62
697.499	5013.62
697.752	4801.62
698.006	4786.62
698.259	4903.62
698.512	4858.62
698.765	4851.62
699.018	4821.62
699.272	4862.62
699.525	4879.62
699.778	4825.62
700.031	4792.62
700.284	4774.62
700.538	4852.62
700.791	4845.62
701.044	4838.62
701.297	4856.62
701.55	4842.62
701.803	4818.62
702.056	4729.62
702.31	4757.62
702.563	4945.62
702.816	4852.62
703.069	4680.62
703.322	4752.62
703.575	4843.62
703.828	4857.62
704.081	4754.62
704.334	4772.62
704.587	4824.62
704.84	4787.62
705.093	4809.62
705.346	4882.62
705.599	4867.62
705.853	4845.62
706.106	4858.62
706.359	5116.62
706.612	4866.62
706.865	4892.62
707.118	4681.62
707.37	4741.62
707.623	4890.62
707.876	4829.62
708.129	4754.62
708.382	4857.62
708.635	4974.62
708.888	4774.62
709.141	4654.62
709.394	4785.62
709.647	4895.62
709.9	4747.62
710.153	4595.62
710.406	4717.62
710.658	4804.62
710.911	4771.62
711.164	4638.62
711.417	4636.62
711.67	4691.62
711.923	4746.62
712.176	4606.62
712.428	4642.62
712.681	4721.62
712.934	4720.62
713.187	4649.62
713.44	4503.62
713.692	4615.62
713.945	4550.62
714.198	4492.62
714.451	4503.62
714.704	4684.62
714.956	4686.62
715.209	4705.62
715.462	4630.62
715.715	4622.62
715.967	4590.62
716.22	4445.62
716.473	4462.62
716.725	4625.62
716.978	4578.62
717.231	4564.62
717.484	4584.62
717.736	4486.62
717.989	4458.62
718.242	4394.62
718.494	4481.62
718.747	4596.62
718.999	4512.62
719.252	4529.62
719.505	4509.62
719.757	4495.62
720.01	4430.62
720.263	4406.62
720.515	4390.62
720.768	4475.62
721.02	4478.62
721.273	4364.62
721.525	4281.62
721.778	4359.62
722.031	4465.62
722.283	4264.62
722.536	4259.62
722.788	4399.62
723.041	4387.62
723.293	4275.62
723.546	4239.62
723.798	4323.62
724.051	4383.62
724.303	4275.62
724.556	4275.62
724.808	4395.62
725.061	4324.62
725.313	4213.62
725.566	4222.62
725.818	4245.62
726.071	4162.62
726.323	4038.62
726.575	4111.62
726.828	4231.62
727.08	4239.62
727.333	4063.62
727.585	4100.62
727.837	4146.62
728.09	4136.62
728.342	4013.62
728.595	4120.62
728.847	4254.62
729.099	3994.62
729.352	4009.62
729.604	4000.62
729.856	4083.62
730.109	4070.62
730.361	3978.62
730.613	4064.62
730.866	4144.62
731.118	3994.62
731.37	3917.62
731.622	3943.62
731.875	4003.62
732.127	3999.62
732.379	4001.62
732.631	4034.62
732.884	3993.62
733.136	3942.62
733.388	3794.62
733.64	3848.62
733.893	4020.62
734.145	3926.62
734.397	3798.62
734.649	3785.62
734.901	3887.62
735.154	3784.62
735.406	3687.62
735.658	3739.62
735.91	3865.62
736.162	3811.62
736.414	3716.62
736.667	3792.62
736.919	3812.62
737.171	3705.62
737.423	3664.62
737.675	3650.62
737.927	3774.62
738.179	3731.62
738.431	3666.62
738.684	3612.62
738.936	3711.62
739.188	3731.62
739.44	3524.62
739.692	3563.62
739.944	3563.62
740.196	3561.62
740.448	3511.62
740.7	3539.62
740.952	3562.62
741.204	3570.62
741.456	3459.62
741.708	3516.62
741.96	3510.62
742.212	3592.62
742.464	3561.62
742.716	3433.62
742.968	3510.62
743.22	3423.62
743.472	3351.62
743.724	3425.62
743.976	3550.62
744.228	3571.62
744.48	3354.62
744.732	3386.62
744.983	3522.62
745.235	3484.62
745.487	3428.62
745.739	3451.62
745.991	3439.62
746.243	3519.62
746.495	3344.62
746.747	3350.62
746.999	3445.62
747.25	3431.62
747.502	3416.62
747.754	3492.62
748.006	3427.62
748.258	3529.62
748.51	3533.62
748.761	3382.62
749.013	3420.62
749.265	3442.62
749.517	3431.62
749.768	3480.62
750.02	3481.62
750.272	3439.62
750.524	3265.62
750.776	3228.62
751.027	3434.62
751.279	3422.62
751.531	3249.62
751.782	3326.62
752.034	3401.62
752.286	3292.62
752.538	3172.62
752.789	3249.62
753.041	3345.62
753.293	3311.62
753.544	3195.62
753.796	3211.62
754.048	3322.62
754.299	3309.62
754.551	3269.62
754.803	3169.62
755.054	3171.62
755.306	3231.62
755.558	3113.62
755.809	3099.62
756.061	3274.62
756.312	3185.62
756.564	3180.62
756.816	3161.62
757.067	3150.62
757.319	3149.62
757.57	3105.62
757.822	3179.62
758.073	3229.62
758.325	3177.62
758.577	3023.62
758.828	3046.62
759.08	3219.62
759.331	3187.62
759.583	3007.62
759.834	3112.62
760.086	3109.62
760.337	3085.62
760.589	3020.62
760.84	3029.62
761.092	3072.62
761.343	3017.62
761.595	2879.62
761.846	3029.62
762.097	3054.62
762.349	3011.62
762.6	2853.62
762.852	2957.62
763.103	3101.62
763.355	2913.62
763.606	2850.62
763.857	2965.62
764.109	3075.62
764.36	2958.62
764.612	2850.62
764.863	2966.62
765.114	3001.62
765.366	2863.62
765.617	2778.62
765.868	2832.62
766.12	2966.62
766.371	2944.62
766.622	2773.62
766.874	2846.62
767.125	2974.62
767.376	2823.62
767.628	2758.62
767.879	2836.62
768.13	2925.62
768.381	2894.62
768.633	2819.62
768.884	2814.62
769.135	2869.62
769.386	2840.62
769.638	2811.62
769.889	2840.62
770.14	2850.62
770.391	2740.62
770.643	2680.62
770.894	2679.62
771.145	2774.62
771.396	2674.62
771.647	2626.62
771.899	2726.62
772.15	2832.62
772.401	2786.62
772.652	2616.62
772.903	2652.62
773.154	2981.62
773.406	3227.62
773.657	2671.62
773.908	2645.62
774.159	2715.62
774.41	2739.62
774.661	2588.62
774.912	2642.62
775.163	2819.62
775.414	2777.62
775.666	2523.62
775.917	2571.62
776.168	2645.62
776.419	2605.62
776.67	2517.62
776.921	2507.62
777.172	2608.62
777.423	2641.62
777.674	2607.62
777.925	2586.62
778.176	2549.62
778.427	2579.62
778.678	2481.62
778.929	2487.62
779.18	2597.62
779.431	2517.62
779.682	2517.62
779.933	2555.62
780.184	2553.62
780.435	2538.62
780.686	2474.62
780.937	2546.62
781.188	2594.62
781.439	2671.62
781.69	2554.62
781.941	2511.62
782.191	2539.62
782.442	2503.62
782.693	2364.62
782.944	2345.62
783.195	2433.62
783.446	2468.62
783.697	2486.62
783.948	2393.62
784.199	2430.62
784.449	2395.62
784.7	2368.62
784.951	2385.62
785.202	2539.62
785.453	2513.62
785.704	2303.62
785.954	2282.62
786.205	2386.62
786.456	2344.62
786.707	2243.62
786.958	2253.62
787.208	2378.62
787.459	2351.62
787.71	2322.62
787.961	2307.62
788.211	2346.62
788.462	2330.62
788.713	2245.62
788.964	2236.62
789.214	2358.62
789.465	2396.62
789.716	2298.62
789.967	2297.62
790.217	2264.62
790.468	2249.62
790.719	2162.62
790.969	2233.62
791.22	2281.62
791.471	2351.62
791.721	2373.62
791.972	2246.62
792.223	2310.62
792.473	2237.62
792.724	2185.62
792.975	2198.62
793.225	2255.62
793.476	2221.62
793.726	2161.62
793.977	2245.62
794.228	2324.62
794.478	2256.62
794.729	2130.62
794.979	2216.62
795.23	2285.62
795.481	2209.62
795.731	2093.62
795.982	2149.62
796.232	2171.62
796.483	2117.62
796.733	2050.62
796.984	2072.62
797.234	2150.62
797.485	2190.62
797.735	2059.62
797.986	2085.62
798.236	2202.62
798.487	2112.62
798.737	2112.62
798.988	2210.62
799.238	2212.62
799.489	2101.62
799.739	2004.62
799.99	2078.62
800.24	2190.62
800.491	2224.62
800.741	2082.62
800.991	1991.62
801.242	2072.62
801.492	2063.62
801.743	1996.62
801.993	2257.62
802.244	2462.62
802.494	2079.62
802.744	2030.62
802.995	2073.62
803.245	2083.62
803.495	2013.62
803.746	1981.62
803.996	2097.62
804.246	2087.62
804.497	2067.62
804.747	1933.62
804.997	1997.62
805.248	2019.62
805.498	1978.62
805.748	1976.62
805.999	1888.62
806.249	1951.62
806.499	1959.62
806.75	1859.62
807	1873.62
807.25	1949.62
807.5	1921.62
807.751	1962.62
808.001	1983.62
808.251	1954.62
808.501	2018.62
808.752	2002.62
809.002	1970.62
809.252	1984.62
809.502	1909.62
809.752	1876.62
810.003	1833.62
810.253	1895.62
810.503	1951.62
810.753	1973.62
811.003	1982.62
811.254	2003.62
811.504	1916.62
811.754	1877.62
812.004	1899.62
812.254	2112.62
812.504	1930.62
812.754	1830.62
813.005	1893.62
813.255	1981.62
813.505	1921.62
813.755	1837.62
814.005	1883.62
814.255	1911.62
814.505	1859.62
814.755	1770.62
815.005	1799.62
815.255	1891.62
815.505	1833.62
815.756	1859.62
816.006	1851.62
816.256	1801.62
816.506	1750.62
816.756	1683.62
817.006	1746.62
817.256	1828.62
817.506	1816.62
817.756	1773.62
818.006	1759.62
818.256	1814.62
818.506	1819.62
818.756	1685.62
819.006	1713.62
819.256	1798.62
819.506	1740.62
819.756	1688.62
820.006	1763.62
820.255	1829.62
820.505	1823.62
820.755	1690.62
821.005	1705.62
821.255	1843.62
821.505	1800.62
821.755	1693.62
822.005	1766.62
822.255	1854.62
822.505	1759.62
822.755	1775.62
823.004	1647.62
823.254	1667.62
823.504	1724.62
823.754	1739.62
824.004	1642.62
824.254	1745.62
824.504	1742.62
824.753	1769.62
825.003	1785.62
825.253	1805.62
825.503	1651.62
825.753	1624.62
826.002	1710.62
826.252	1920.62
826.502	1710.62
826.752	1604.62
827.002	1618.62
827.251	1737.62
827.501	1676.62
827.751	1595.62
828.001	1647.62
828.25	1738.62
828.5	1609.62
828.75	1576.62
829	1654.62
829.249	1778.62
829.499	1618.62
829.749	1586.62
829.998	1653.62
830.248	1662.62
830.498	1546.62
830.748	1576.62
830.997	1635.62
831.247	1701.62
831.497	1683.62
831.746	1588.62
831.996	1675.62
832.246	1783.62
832.495	1785.62
832.745	1529.62
832.994	1552.62
833.244	1697.62
833.494	1574.62
833.743	1497.62
833.993	1597.62
834.243	1649.62
834.492	1607.62
834.742	1571.62
834.991	1567.62
835.241	1723.62
835.49	1580.62
835.74	1470.62
835.99	1559.62
836.239	1644.62
836.489	1655.62
836.738	1565.62
836.988	1416.62
837.237	1543.62
837.487	1655.62
837.736	1527.62
837.986	1489.62
838.235	1562.62
838.485	1553.62
838.734	1495.62
838.984	1546.62
839.233	1525.62
839.483	1422.62
839.732	1390.62
839.982	1488.62
840.231	1553.62
840.481	1526.62
840.73	1401.62
840.979	1468.62
841.229	1500.62
841.478	1474.62
841.728	1371.62
841.977	1341.62
842.227	1392.62
842.476	1357.62
842.725	1351.62
842.975	1429.62
843.224	1497.62
843.474	1551.62
843.723	1436.62
843.972	1416.62
844.222	1456.62
844.471	1504.62
844.72	1389.62
844.97	1404.62
845.219	1489.62
845.468	1462.62
845.718	1397.62
845.967	1422.62
846.216	1503.62
846.466	1533.62
846.715	1370.62
846.964	1385.62
847.214	1397.62
847.463	1347.62
847.712	1380.62
847.961	1327.62
848.211	1397.62
848.46	1395.62
848.709	1353.62
848.958	1309.62
849.208	1359.62
849.457	1367.62
849.706	1360.62
849.955	1313.62
850.205	1315.62
850.454	1474.62
850.703	1473.62
850.952	1381.62
851.201	1431.62
851.451	1364.62
851.7	1340.62
851.949	1241.62
852.198	1362.62
852.447	1310.62
852.696	1251.62
852.946	1301.62
853.195	1407.62
853.444	1389.62
853.693	1199.62
853.942	1198.62
854.191	1305.62
854.44	1326.62
854.689	1277.62
854.939	1214.62
855.188	1198.62
855.437	1235.62
855.686	1216.62
855.935	1251.62
856.184	1280.62
856.433	1319.62
856.682	1236.62
856.931	1239.62
857.18	1289.62
857.429	1229.62
857.678	1182.62
857.927	1211.62
858.176	1246.62
858.425	1187.62
858.674	1118.62
858.924	1194.62
859.173	1202.62
859.422	1227.62
859.671	1101.62
859.92	1147.62
860.169	1197.62
860.417	1227.62
860.666	1170.62
860.915	1139.62
861.164	1194.62
861.413	1122.62
861.662	1047.62
861.911	1083.62
862.16	1216.62
862.409	1189.62
862.658	1077.62
862.907	1102.62
863.156	1195.62
863.405	1195.62
863.654	1100.62
863.903	1053.62
864.151	1141.62
864.4	1157.62
864.649	1094.62
864.898	1155.62
865.147	1205.62
865.396	1217.62
865.645	1062.62
865.894	1102.62
866.142	1230.62
866.391	1133.62
866.64	1020.62
866.889	1121.62
867.138	1275.62
867.387	1158.62
867.635	1066.62
867.884	1129.62
868.133	1213.62
868.382	1120.62
868.631	980.62
868.879	1022.62
869.128	1143.62
869.377	1096.62
869.626	1034.62
869.874	1044.62
870.123	1139.62
870.372	1118.62
870.621	973.62
870.869	1024.62
871.118	1129.62
871.367	1070.62
871.616	989.62
871.864	1112.62
872.113	1122.62
872.362	1071.62
872.61	998.62
872.859	1077.62
873.108	1124.62
873.357	1019.62
873.605	908.62
873.854	953.62
874.103	1012.62
874.351	1034.62
874.6	985.62
874.848	996.62
875.097	1041.62
875.346	1061.62
875.594	952.62
875.843	1036.62
876.092	1156.62
876.34	1042.62
876.589	950.62
876.837	860.62
877.086	949.62
877.335	1026.62
877.583	974.62
877.832	1024.62
878.08	1138.62
878.329	1017.62
878.578	911.62
878.826	942.62
879.075	1042.62
879.323	1049.62
879.572	943.62
879.82	1062.62
880.069	1023.62
880.317	1017.62
880.566	888.62
880.814	1002.62
881.063	1112.62
881.311	1003.62
881.56	1001.62
881.808	934.62
882.057	981.62
882.305	972.62
882.554	986.62
882.802	913.62
883.051	941.62
883.299	942.62
883.548	878.62
883.796	958.62
884.045	985.62
884.293	899.62
884.541	781.62
884.79	805.62
885.038	889.62
885.287	880.62
885.535	903.62
885.783	932.62
886.032	884.62
886.28	853.62
886.529	811.62
886.777	857.62
887.025	1015.62
887.274	892.62
887.522	847.62
887.77	860.62
888.019	875.62
888.267	845.62
888.516	758.62
888.764	788.62
889.012	875.62
889.261	866.62
889.509	766.62
889.757	808.62
890.005	839.62
890.254	766.62
890.502	793.62
890.75	987.62
890.999	982.62
891.247	906.62
891.495	854.62
891.743	819.62
891.992	958.62
892.24	868.62
892.488	747.62
892.737	781.62
892.985	856.62
893.233	827.62
893.481	777.62
893.729	765.62
893.978	905.62
894.226	899.62
894.474	757.62
894.722	754.62
894.97	798.62
895.219	765.62
895.467	791.62
895.715	824.62
895.963	805.62
896.211	762.62
896.46	707.62
896.708	798.62
896.956	890.62
897.204	951.62
897.452	817.62
897.7	744.62
897.948	841.62
898.197	793.62
898.445	727.62
898.693	754.62
898.941	811.62
899.189	803.62
899.437	746.62
899.685	825.62
899.933	793.62
900.181	789.62
900.43	674.62
900.678	727.62
900.926	789.62
901.174	744.62
901.422	698.62
901.67	717.62
901.918	795.62
902.166	750.62
902.414	594.62
902.662	646.62
902.91	756.62
903.158	761.62
903.406	689.62
903.654	705.62
903.902	740.62
904.15	703.62
904.398	578.62
904.646	682.62
904.894	773.62
905.142	778.62
905.39	728.62
905.638	636.62
905.886	689.62
906.134	689.62
906.382	665.62
906.63	632.62
906.878	711.62
907.126	705.62
907.374	646.62
907.622	645.62
907.869	747.62
908.117	722.62
908.365	660.62
908.613	636.62
908.861	633.62
909.109	594.62
909.357	571.62
909.605	633.62
909.853	697.62
910.1	664.62
910.348	523.62
910.596	532.62
910.844	705.62
911.092	746.62
911.34	642.62
911.588	660.62
911.835	713.62
912.083	675.62
912.331	653.62
912.579	680.62
912.827	850.62
913.075	718.62
913.322	590.62
913.57	590.62
913.818	711.62
914.066	650.62
914.313	581.62
914.561	651.62
914.809	652.62
915.057	596.62
915.305	592.62
915.552	597.62
915.8	705.62
916.048	629.62
916.296	521.62
916.543	622.62
916.791	687.62
917.039	645.62
917.286	531.62
917.534	566.62
917.782	671.62
918.03	569.62
918.277	477.62
918.525	495.62
918.773	617.62
919.02	598.62
919.268	538.62
919.516	545.62
919.763	550.62
920.011	565.62
920.259	480.62
920.506	561.62
920.754	647.62
921.002	626.62
921.249	595.62
921.497	561.62
921.745	582.62
921.992	608.62
922.24	459.62
922.487	569.62
922.735	737.62
922.983	633.62
923.23	530.62
923.478	475.62
923.725	585.62
923.973	601.62
924.221	567.62
924.468	617.62
924.716	610.62
924.963	585.62
925.211	519.62
925.458	567.62
925.706	663.62
925.953	682.62
926.201	507.62
926.448	474.62
926.696	559.62
926.944	550.62
927.191	489.62
927.439	482.62
927.686	533.62
927.934	553.62
928.181	453.62
928.429	456.62
928.676	509.62
928.923	442.62
929.171	417.62
929.418	542.62
929.666	588.62
929.913	574.62
930.161	368.62
930.408	420.62
930.656	511.62
930.903	557.62
931.151	432.62
931.398	469.62
931.645	555.62
931.893	461.62
932.14	402.62
932.388	464.62
932.635	626.62
932.882	644.62
933.13	521.62
933.377	447.62
933.625	540.62
933.872	453.62
934.119	375.62
934.367	435.62
934.614	436.62
934.861	426.62
935.109	397.62
935.356	468.62
935.603	499.62
935.851	441.62
936.098	389.62
936.345	499.62
936.593	522.62
936.84	466.62
937.087	359.62
937.335	422.62
937.582	472.62
937.829	501.62
938.077	442.62
938.324	443.62
938.571	514.62
938.818	421.62
939.066	376.62
939.313	350.62
939.56	467.62
939.807	473.62
940.055	346.62
940.302	366.62
940.549	534.62
940.796	482.62
941.044	431.62
941.291	428.62
941.538	568.62
941.785	458.62
942.033	399.62
942.28	461.62
942.527	497.62
942.774	476.62
943.021	338.62
943.269	367.62
943.516	468.62
943.763	469.62
944.01	401.62
944.257	456.62
944.504	548.62
944.752	498.62
944.999	442.62
945.246	365.62
945.493	436.62
945.74	415.62
945.987	343.62
946.234	447.62
946.482	536.62
946.729	422.62
946.976	353.62
947.223	351.62
947.47	499.62
947.717	481.62
947.964	479.62
948.211	441.62
948.458	500.62
948.705	443.62
948.952	338.62
949.2	402.62
949.447	518.62
949.694	505.62
949.941	344.62
950.188	339.62
950.435	367.62
950.682	372.62
950.929	259.62
951.176	318.62
951.423	477.62
951.67	455.62
951.917	410.62
952.164	403.62
952.411	482.62
952.658	530.62
952.905	356.62
953.152	277.62
953.399	425.62
953.646	423.62
953.893	306.62
954.14	338.62
954.387	370.62
954.634	343.62
954.881	311.62
955.128	388.62
955.375	366.62
955.622	347.62
955.869	342.62
956.115	325.62
956.362	414.62
956.609	385.62
956.856	296.62
957.103	298.62
957.35	411.62
957.597	421.62
957.844	346.62
958.091	329.62
958.338	415.62
958.585	374.62
958.831	199.62
959.078	249.62
959.325	412.62
959.572	322.62
959.819	233.62
960.066	197.62
960.313	343.62
960.559	317.62
960.806	182.62
961.053	226.62
961.3	394.62
961.547	412.62
961.794	222.62
962.04	387.62
962.287	416.62
962.534	273.62
962.781	226.62
963.028	305.62
963.274	425.62
963.521	337.62
963.768	247.62
964.015	276.62
964.262	443.62
964.508	289.62
964.755	190.62
965.002	212.62
965.249	282.62
965.495	220.62
965.742	196.62
965.989	210.62
966.236	335.62
966.482	258.62
966.729	195.62
966.976	180.62
967.222	267.62
967.469	248.62
967.716	192.62
967.963	203.62
968.209	286.62
968.456	257.62
968.703	130.62
968.949	242.62
969.196	424.62
969.443	403.62
969.689	186.62
969.936	156.62
970.183	252.62
970.429	205.62
970.676	171.62
970.923	247.62
971.169	294.62
971.416	219.62
971.663	189.62
971.909	225.62
972.156	306.62
972.402	303.62
972.649	228.62
972.896	249.62
973.142	265.62
973.389	280.62
973.635	187.62
973.882	304.62
974.129	365.62
974.375	242.62
974.622	164.62
974.868	172.62
975.115	255.62
975.361	224.62
975.608	197.62
975.855	298.62
976.101	314.62
976.348	237.62
976.594	184.62
976.841	241.62
977.087	250.62
977.334	269.62
977.58	122.62
977.827	132.62
978.073	287.62
978.32	257.62
978.566	136.62
978.813	217.62
979.059	253.62
979.306	234.62
979.552	125.62
979.799	202.62
980.045	194.62
980.292	192.62
980.538	123.62
980.785	104.62
981.031	159.62
981.278	140.62
981.524	89.62
981.771	235.62
982.017	377.62
982.263	272.62
982.51	142.62
982.756	224.62
983.003	272.62
983.249	214.62
983.495	122.62
983.742	109.62
983.988	199.62
984.235	217.62
984.481	111.62
984.727	122.62
984.974	244.62
985.22	238.62
985.467	151.62
985.713	149.62
985.959	277.62
986.206	247.62
986.452	160.62
986.698	215.62
986.945	207.62
987.191	246.62
987.437	236.62
987.684	184.62
987.93	335.62
988.176	248.62
988.423	80.62
988.669	151.62
988.915	301.62
989.162	170.62
989.408	77.62
989.654	147.62
989.901	163.62
990.147	163.62
990.393	167.62
990.639	206.62
990.886	237.62
991.132	286.62
991.378	219.62
991.625	338.62
991.871	320.62
992.117	250.62
992.363	181.62
992.61	193.62
992.856	305.62
993.102	175.62
993.348	117.62
993.594	123.62
993.841	163.62
994.087	311.62
994.333	177.62
994.579	148.62
994.826	197.62
995.072	193.62
995.318	3.62
995.564	75.62
995.81	219.62
996.057	153.62
996.303	53.62
996.549	76.62
996.795	161.62
997.041	148.62
997.287	106.62
997.534	119.62
997.78	178.62
998.026	197.62
998.272	55.62
998.518	63.62
998.764	204.62
999.01	222.62
999.256	140.62
999.503	103.62
999.749	125.62
999.995	85.62
1000.241	47.62
1000.487	129.62
1000.733	175.62
1000.979	122.62
1001.225	104.62
1001.471	185.62
1001.718	225.62
1001.964	247.62
1002.21	68.62
1002.456	100.62
1002.702	272.62
1002.948	179.62
1003.194	97.62
1003.44	67.62
1003.686	142.62
1003.932	118.62
1004.178	69.62
1004.424	131.62
1004.67	271.62
1004.916	249.62
1005.162	145.62
1005.408	99.62
1005.654	231.62
1005.9	73.62
1006.146	-3.38
1006.392	79.62
1006.638	166.62
1006.884	149.62
1007.13	46.62
1007.376	15.62
1007.622	189.62
1007.868	209.62
1008.114	93.62
1008.36	146.62
1008.606	179.62
1008.852	189.62
1009.098	127.62
1009.344	169.62
1009.59	142.62
1009.836	26.62
1010.082	-42.38
1010.328	54.62
1010.574	141.62
1010.82	53.62
1011.065	-29.38
1011.311	7.62
1011.557	121.62
1011.803	85.62
1012.049	16.62
1012.295	77.62
1012.541	125.62
1012.787	106.62
1013.033	-35.38
1013.278	-41.38
1013.524	113.62
1013.77	184.62
1014.016	56.62
1014.262	73.62
1014.508	182.62
1014.754	27.62
1015	11.62
1015.245	169.62
1015.491	173.62
1015.737	155.62
1015.983	19.62
1016.229	-6.38
1016.475	111.62
1016.72	223.62
1016.966	225.62
1017.212	118.62
1017.458	194.62
1017.704	110.62
1017.949	-25.38
1018.195	138.62
1018.441	242.62
1018.687	193.62
1018.933	55.62
1019.178	42.62
1019.424	196.62
1019.67	204.62
1019.916	18.62
1020.161	51.62
1020.407	105.62
1020.653	51.62
1020.899	-20.38
1021.144	73.62
1021.39	142.62
1021.636	40.62
1021.882	-48.38
1022.127	68.62
1022.373	205.62
1022.619	152.62
1022.865	22.62
1023.11	41.62
1023.356	165.62
1023.602	95.62
1023.847	21.62
1024.093	70.62
1024.339	46.62
1024.584	28.62
1024.83	4.62
1025.076	9.62
1025.321	158.62
1025.567	123.62
1025.813	-13.38
1026.058	70.62
1026.304	145.62
1026.55	60.62
1026.795	39.62
1027.041	45.62
1027.287	96.62
1027.532	122.62
1027.778	85.62
1028.024	50.62
1028.269	94.62
1028.515	13.62
1028.76	-44.38
1029.006	41.62
1029.252	149.62
1029.497	62.62
1029.743	47.62
1029.989	-15.38
1030.234	126.62
1030.48	180.62
1030.725	-12.38
1030.971	22.62
1031.216	173.62
1031.462	82.62
1031.708	-71.38
1031.953	-36.38
1032.199	66.62
1032.444	73.62
1032.69	5.62
1032.935	13.62
1033.181	149.62
1033.426	29.62
1033.672	-109.38
1033.918	-54.38
1034.163	43.62
1034.409	25.62
1034.654	-10.38
1034.9	106.62
1035.145	134.62
1035.391	47.62
1035.636	-66.38
1035.882	4.62
1036.127	10.62
1036.373	-12.38
1036.618	-120.38
1036.864	-8.38
1037.109	119.62
1037.355	26.62
1037.6	-34.38
1037.845	-9.38
1038.091	179.62
1038.336	136.62
1038.582	145.62
1038.827	211.62
1039.073	76.62
1039.318	-19.38
1039.564	-122.38
1039.809	-31.38
1040.055	149.62
1040.3	134.62
1040.545	-29.38
1040.791	-18.38
1041.036	47.62
1041.282	65.62
1041.527	120.62
1041.772	-53.38
1042.018	8.62
1042.263	38.62
1042.509	-112.38
1042.754	-58.38
1042.999	60.62
1043.245	30.62
1043.49	-140.38
1043.736	-47.38
1043.981	34.62
1044.226	44.62
1044.472	10.62
1044.717	18.62
1044.962	134.62
1045.208	54.62
1045.453	-172.38
1045.698	-110.38
1045.944	89.62
1046.189	55.62
1046.434	-35.38
1046.68	-18.38
1046.925	163.62
1047.17	-0.38
1047.416	-167.38
1047.661	-62.38
1047.906	78.62
1048.152	43.62
1048.397	-31.38
1048.642	-33.38
1048.887	140.62
1049.133	137.62
1049.378	-40.38
1049.623	-51.38
1049.869	85.62
1050.114	8.62
1050.359	-78.38
1050.604	7.62
1050.85	157.62
1051.095	24.62
1051.34	-70.38
1051.585	-1.38
1051.831	171.62
1052.076	22.62
1052.321	-174.38
1052.566	-64.38
1052.812	116.62
1053.057	21.62
1053.302	-58.38
1053.547	24.62
1053.792	90.62
1054.038	69.62
1054.283	-113.38
1054.528	-32.38
1054.773	36.62
1055.018	29.62
1055.264	-74.38
1055.509	-96.38
1055.754	17.62
1055.999	-42.38
1056.244	-122.38
1056.49	-61.38
1056.735	35.62
1056.98	-13.38
1057.225	-108.38
1057.47	64.62
1057.715	-1.38
1057.96	-67.38
1058.206	-107.38
1058.451	-3.38
1058.696	111.62
1058.941	65.62
1059.186	-104.38
1059.431	-89.38
1059.676	120.62
1059.922	65.62
1060.167	136.62
1060.412	299.62
1060.657	79.62
1060.902	26.62
1061.147	-159.38
1061.392	-75.38
1061.637	66.62
1061.882	-7.38
1062.127	-158.38
1062.373	-136.38
1062.618	117.62
1062.863	148.62
1063.108	-45.38
1063.353	-102.38
1063.598	-19.38
1063.843	-30.38
1064.088	-112.38
1064.333	-122.38
1064.578	34.62
1064.823	77.62
1065.068	-169.38
1065.313	-101.38
1065.558	45.62
1065.803	58.62
1066.048	-138.38
1066.293	-140.38
1066.538	73.62
1066.783	17.62
1067.028	-166.38
1067.273	-146.38
1067.518	42.62
1067.763	-14.38
1068.008	-156.38
1068.253	-97.38
1068.498	82.62
1068.743	19.62
1068.988	-133.38
1069.233	-131.38
1069.478	78.62
1069.723	135.62
1069.968	-61.38
1070.213	-23.38
1070.458	71.62
1070.703	-15.38
1070.948	-178.38
1071.193	-71.38
1071.438	58.62
1071.683	93.62
1071.928	-42.38
1072.173	-64.38
1072.418	23.62
1072.663	-20.38
1072.908	-149.38
1073.152	-80.38
1073.397	101.62
1073.642	-17.38
1073.887	-79.38
1074.132	41.62
1074.377	28.62
1074.622	-0.38
1074.867	-110.38
1075.112	-56.38
1075.357	127.62
1075.601	-23.38
1075.846	-72.38
1076.091	23.62
1076.336	91.62
1076.581	-54.38
1076.826	-145.38
1077.071	-67.38
1077.315	167.62
1077.56	102.62
1077.805	-111.38
1078.05	-65.38
1078.295	-2.38
1078.54	-33.38
1078.785	-158.38
1079.029	-102.38
1079.274	71.62
1079.519	-66.38
1079.764	-166.38
1080.009	-53.38
1080.253	25.62
1080.498	-62.38
1080.743	-205.38
1080.988	-67.38
1081.233	145.62
1081.478	87.62
1081.722	-107.38
1081.967	-2.38
1082.212	150.62
1082.457	44.62
1082.701	-100.38
1082.946	-66.38
1083.191	50.62
1083.436	-54.38
1083.681	-201.38
1083.925	-93.38
1084.17	-1.38
1084.415	40.62
1084.66	-179.38
1084.904	-83.38
1085.149	-3.38
1085.394	-29.38
1085.639	-199.38
1085.883	-95.38
1086.128	166.62
1086.373	163.62
1086.617	-69.38
1086.862	-136.38
1087.107	-20.38
1087.352	-76.38
1087.596	-150.38
1087.841	-36.38
1088.086	26.62
1088.33	-7.38
1088.575	-232.38
1088.82	-87.38
1089.064	99.62
1089.309	-69.38
1089.554	-193.38
1089.798	-148.38
1090.043	46.62
1090.288	2.62
1090.533	-195.38
1090.777	-114.38
1091.022	19.62
1091.266	66.62
1091.511	-120.38
1091.756	-54.38
1092	95.62
1092.245	75.62
1092.49	-164.38
1092.734	-111.38
1092.979	72.62
1093.224	-30.38
1093.468	-142.38
1093.713	-68.38
1093.957	19.62
1094.202	-37.38
1094.447	-218.38
1094.691	-88.38
1094.936	45.62
1095.181	-11.38
1095.425	-184.38
1095.67	-150.38
1095.914	12.62
1096.159	-4.38
1096.403	-155.38
1096.648	-68.38
1096.893	49.62
1097.137	-77.38
1097.382	-222.38
1097.626	-149.38
1097.871	20.62
1098.115	-29.38
1098.36	-196.38
1098.605	-112.38
1098.849	-52.38
1099.094	-102.38
1099.338	-183.38
1099.583	-104.38
1099.827	140.62
1100.072	36.62
1100.316	-163.38
1100.561	-96.38
1100.805	54.62
1101.05	15.62
1101.294	-180.38
1101.539	-167.38
1101.783	1.62
1102.028	2.62
1102.273	-149.38
1102.517	-78.38
1102.761	64.62
1103.006	-65.38
1103.25	-263.38
1103.495	-164.38
1103.739	40.62
1103.984	93.62
1104.228	-104.38
1104.473	-18.38
1104.717	30.62
1104.962	-10.38
1105.206	-130.38
1105.451	-145.38
1105.695	29.62
1105.94	-19.38
1106.184	-154.38
1106.429	-74.38
1106.673	33.62
1106.917	71.62
1107.162	-161.38
1107.406	-27.38
1107.651	123.62
1107.895	-78.38
1108.14	-187.38
1108.384	-95.38
1108.628	121.62
1108.873	103.62
1109.117	-137.38
1109.362	-108.38
1109.606	-8.38
1109.85	-17.38
1110.095	-172.38
1110.339	-97.38
1110.584	104.62
1110.828	38.62
1111.072	-99.38
1111.317	-128.38
1111.561	-27.38
1111.806	-43.38
1112.05	-170.38
1112.294	-93.38
1112.539	25.62
1112.783	-17.38
1113.027	-130.38
1113.272	-110.38
1113.516	-32.38
1113.76	-42.38
1114.005	-130.38
1114.249	-57.38
1114.493	84.62
1114.738	90.62
1114.982	-52.38
1115.226	-92.38
1115.471	-5.38
1115.715	-19.38
1115.959	-188.38
1116.204	-183.38
1116.448	-16.38
1116.692	-97.38
1116.937	-173.38
1117.181	-14.38
1117.425	-16.38
1117.67	-73.38
1117.914	-149.38
1118.158	-95.38
1118.402	122.62
1118.647	60.62
1118.891	-93.38
1119.135	-47.38
1119.38	98.62
1119.624	26.62
1119.868	-124.38
1120.112	-135.38
1120.357	-53.38
1120.601	-117.38
1120.845	-223.38
1121.089	-142.38
1121.334	34.62
