Data from HR4C21111__11__09-41-46-959.txt Node

Date: Mon Feb 22 09:41:46 IST 2021
User: Kapil
Spectrometer: HR4C2111
Trigger mode: 4
Integration Time (sec): 2.300000E0
Scans to average: 1
Electric dark correction enabled: true
Nonlinearity correction enabled: false
Boxcar width: 0
XAxis mode: Wavelengths
Number of Pixels in Spectrum: 3648
>>>>>Begin Spectral Data<<<<<
189.472	-422.23
189.745	-422.23
190.017	-422.23
190.289	-459.23
190.561	-300.23
190.834	-41.23
191.106	-132.23
191.378	8.77
191.65	10.77
191.923	-134.23
192.195	-91.23
192.467	129.77
192.739	106.77
193.011	-12.23
193.284	87.77
193.556	164.77
193.828	-12.23
194.1	-85.23
194.372	-102.23
194.644	65.77
194.916	68.77
195.188	-129.23
195.46	-71.23
195.732	47.77
196.004	-18.23
196.276	-107.23
196.548	-72.23
196.82	71.77
197.092	61.77
197.364	-126.23
197.636	-77.23
197.908	40.77
198.18	-27.23
198.452	-72.23
198.724	-42.23
198.996	58.77
199.268	80.77
199.54	-21.23
199.811	-101.23
200.083	109.77
200.355	26.77
200.627	-200.23
200.899	-72.23
201.171	53.77
201.442	-44.23
201.714	-174.23
201.986	-84.23
202.258	83.77
202.529	122.77
202.801	1.77
203.073	72.77
203.345	185.77
203.616	23.77
203.888	-118.23
204.16	-137.23
204.431	87.77
204.703	-4.23
204.974	-141.23
205.246	9.77
205.518	185.77
205.789	-12.23
206.061	-131.23
206.332	-101.23
206.604	18.77
206.876	81.77
207.147	109.77
207.419	11.77
207.69	145.77
207.962	-24.23
208.233	-172.23
208.505	14.77
208.776	189.77
209.047	82.77
209.319	-123.23
209.59	-80.23
209.862	145.77
210.133	56.77
210.404	-129.23
210.676	-89.23
210.947	74.77
211.219	46.77
211.49	-121.23
211.761	-41.23
212.033	46.77
212.304	-27.23
212.575	-176.23
212.846	-76.23
213.118	38.77
213.389	-44.23
213.66	-96.23
213.931	-36.23
214.203	31.77
214.474	-29.23
214.745	-126.23
215.016	134.77
215.287	429.77
215.559	76.77
215.83	-94.23
216.101	-60.23
216.372	13.77
216.643	79.77
216.914	-4.23
217.185	-70.23
217.456	168.77
217.727	18.77
217.998	-153.23
218.269	-49.23
218.54	24.77
218.811	-16.23
219.082	-103.23
219.353	-61.23
219.624	-4.23
219.895	-27.23
220.166	-143.23
220.437	-114.23
220.708	110.77
220.979	1.77
221.25	-127.23
221.521	-77.23
221.792	53.77
222.063	92.77
222.334	39.77
222.604	178.77
222.875	170.77
223.146	85.77
223.417	-157.23
223.688	-22.23
223.958	120.77
224.229	-39.23
224.5	-179.23
224.771	-76.23
225.041	85.77
225.312	61.77
225.583	-99.23
225.854	-55.23
226.124	99.77
226.395	-0.23
226.666	-120.23
226.936	-92.23
227.207	59.77
227.478	-42.23
227.748	-80.23
228.019	62.77
228.289	258.77
228.56	-16.23
228.831	-54.23
229.101	51.77
229.372	73.77
229.642	-13.23
229.913	-155.23
230.183	-112.23
230.454	1.77
230.724	17.77
230.995	-76.23
231.265	-60.23
231.536	71.77
231.806	34.77
232.076	-112.23
232.347	-111.23
232.617	29.77
232.888	28.77
233.158	-73.23
233.428	-104.23
233.699	8.77
233.969	-40.23
234.239	-157.23
234.51	-78.23
234.78	41.77
235.05	-13.23
235.321	-119.23
235.591	-69.23
235.861	55.77
236.131	-57.23
236.402	-174.23
236.672	-51.23
236.942	56.77
237.212	46.77
237.483	-61.23
237.753	-0.23
238.023	160.77
238.293	19.77
238.563	-78.23
238.833	-102.23
239.103	60.77
239.374	-0.23
239.644	-136.23
239.914	-26.23
240.184	139.77
240.454	1.77
240.724	-147.23
240.994	-37.23
241.264	33.77
241.534	73.77
241.804	-4.23
242.074	-75.23
242.344	-29.23
242.614	-51.23
242.884	-168.23
243.154	-116.23
243.424	42.77
243.694	55.77
243.964	-94.23
244.234	-63.23
244.503	134.77
244.773	13.77
245.043	-209.23
245.313	-127.23
245.583	112.77
245.853	85.77
246.123	-164.23
246.392	-103.23
246.662	1.77
246.932	-13.23
247.202	-161.23
247.471	-46.23
247.741	264.77
248.011	98.77
248.281	-136.23
248.55	-77.23
248.82	72.77
249.09	-2.23
249.359	-77.23
249.629	-64.23
249.899	59.77
250.168	65.77
250.438	-18.23
250.708	-92.23
250.977	104.77
251.247	70.77
251.516	-111.23
251.786	-32.23
252.055	141.77
252.325	24.77
252.595	-85.23
252.864	-46.23
253.134	59.77
253.403	-32.23
253.673	-168.23
253.942	-100.23
254.212	38.77
254.481	6.77
254.75	-138.23
255.02	-79.23
255.289	82.77
255.559	-0.23
255.828	-118.23
256.097	-19.23
256.367	30.77
256.636	-61.23
256.906	-129.23
257.175	-16.23
257.444	260.77
257.714	65.77
257.983	-72.23
258.252	-24.23
258.521	26.77
258.791	49.77
259.06	-97.23
259.329	-49.23
259.598	73.77
259.868	6.77
260.137	-109.23
260.406	22.77
260.675	93.77
260.944	32.77
261.214	-126.23
261.483	-49.23
261.752	173.77
262.021	31.77
262.29	-148.23
262.559	-110.23
262.828	37.77
263.097	-42.23
263.366	-205.23
263.635	-85.23
263.905	145.77
264.174	30.77
264.443	-194.23
264.712	-110.23
264.981	43.77
265.25	-35.23
265.519	-127.23
265.788	-142.23
266.057	33.77
266.325	63.77
266.594	-42.23
266.863	-105.23
267.132	34.77
267.401	6.77
267.67	-188.23
267.939	-134.23
268.208	38.77
268.477	66.77
268.745	-142.23
269.014	-101.23
269.283	153.77
269.552	46.77
269.821	-112.23
270.089	-1.23
270.358	11.77
270.627	-24.23
270.896	-130.23
271.164	-159.23
271.433	31.77
271.702	102.77
271.971	-145.23
272.239	-117.23
272.508	34.77
272.777	-32.23
273.045	-25.23
273.314	-30.23
273.583	122.77
273.851	2.77
274.12	-133.23
274.388	-112.23
274.657	24.77
274.926	1.77
275.194	-148.23
275.463	-47.23
275.731	34.77
276	174.77
276.268	383.77
276.537	-66.23
276.805	30.77
277.074	41.77
277.342	-149.23
277.611	-86.23
277.879	111.77
278.148	53.77
278.416	-127.23
278.684	-106.23
278.953	-16.23
279.221	-31.23
279.49	-171.23
279.758	-97.23
280.026	10.77
280.295	20.77
280.563	-101.23
280.831	712.77
281.1	1786.77
281.368	172.77
281.636	-90.23
281.904	-93.23
282.173	17.77
282.441	-53.23
282.709	-95.23
282.977	30.77
283.246	54.77
283.514	-23.23
283.782	-61.23
284.05	26.77
284.318	82.77
284.587	-15.23
284.855	-111.23
285.123	-32.23
285.391	70.77
285.659	34.77
285.927	-150.23
286.195	-54.23
286.463	64.77
286.732	0.77
287	-120.23
287.268	-54.23
287.536	35.77
287.804	-29.23
288.072	-136.23
288.34	-90.23
288.608	68.77
288.876	-38.23
289.144	-120.23
289.412	-10.23
289.68	51.77
289.948	-20.23
290.215	-109.23
290.483	-72.23
290.751	111.77
291.019	111.77
291.287	-160.23
291.555	-101.23
291.823	42.77
292.091	-10.23
292.358	-61.23
292.626	-20.23
292.894	76.77
293.162	25.77
293.43	-100.23
293.697	-55.23
293.965	77.77
294.233	-8.23
294.501	-157.23
294.768	-60.23
295.036	81.77
295.304	32.77
295.572	-133.23
295.839	-107.23
296.107	114.77
296.375	22.77
296.642	-117.23
296.91	-121.23
297.178	51.77
297.445	191.77
297.713	107.77
297.98	-79.23
298.248	-17.23
298.516	-25.23
298.783	-101.23
299.051	-105.23
299.318	21.77
299.586	-18.23
299.853	-96.23
300.121	-86.23
300.388	55.77
300.656	1.77
300.923	-137.23
301.191	-19.23
301.458	75.77
301.726	-4.23
301.993	-132.23
302.26	-74.23
302.528	48.77
302.795	6.77
303.063	-64.23
303.33	-44.23
303.597	40.77
303.865	25.77
304.132	-120.23
304.399	-125.23
304.667	-17.23
304.934	20.77
305.201	-107.23
305.469	-8.23
305.736	52.77
306.003	32.77
306.27	-55.23
306.538	-89.23
306.805	15.77
307.072	-4.23
307.339	-71.23
307.606	-36.23
307.874	154.77
308.141	68.77
308.408	-122.23
308.675	-99.23
308.942	-32.23
309.209	-59.23
309.477	-110.23
309.744	-77.23
310.011	41.77
310.278	49.77
310.545	-26.23
310.812	-36.23
311.079	152.77
311.346	216.77
311.613	63.77
311.88	-18.23
312.147	-52.23
312.414	-30.23
312.681	-92.23
312.948	-20.23
313.215	123.77
313.482	92.77
313.749	-82.23
314.016	-179.23
314.283	-30.23
314.55	68.77
314.817	-89.23
315.083	-123.23
315.35	-75.23
315.617	-117.23
315.884	-134.23
316.151	56.77
316.418	158.77
316.684	-10.23
316.951	-179.23
317.218	-96.23
317.485	8.77
317.752	-52.23
318.018	-111.23
318.285	-0.23
318.552	50.77
318.819	-45.23
319.085	-128.23
319.352	-34.23
319.619	53.77
319.885	-14.23
320.152	-185.23
320.419	-106.23
320.685	42.77
320.952	-15.23
321.219	-51.23
321.485	80.77
321.752	23.77
322.019	-31.23
322.285	35.77
322.552	4.77
322.818	147.77
323.085	-11.23
323.351	-118.23
323.618	1.77
323.884	67.77
324.151	-46.23
324.417	-19.23
324.684	-62.23
324.95	-38.23
325.217	-124.23
325.483	-157.23
325.75	-19.23
326.016	25.77
326.283	-8.23
326.549	-173.23
326.815	-75.23
327.082	117.77
327.348	28.77
327.615	-94.23
327.881	-23.23
328.147	114.77
328.414	118.77
328.68	17.77
328.946	-31.23
329.212	35.77
329.479	9.77
329.745	-103.23
330.011	-95.23
330.278	16.77
330.544	-45.23
330.81	-28.23
331.076	-12.23
331.342	-13.23
331.609	-23.23
331.875	-76.23
332.141	-79.23
332.407	33.77
332.673	0.77
332.94	-27.23
333.206	-46.23
333.472	46.77
333.738	71.77
334.004	-110.23
334.27	-4.23
334.536	18.77
334.802	-52.23
335.068	-101.23
335.334	10.77
335.6	35.77
335.866	-22.23
336.132	-154.23
336.398	-81.23
336.664	-18.23
336.93	-30.23
337.196	-89.23
337.462	-18.23
337.728	35.77
337.994	-30.23
338.26	-97.23
338.526	-32.23
338.792	-33.23
339.058	-42.23
339.324	-144.23
339.59	-17.23
339.856	74.77
340.121	-39.23
340.387	-117.23
340.653	83.77
340.919	145.77
341.185	42.77
341.45	-65.23
341.716	21.77
341.982	103.77
342.248	-40.23
342.514	-67.23
342.779	13.77
343.045	41.77
343.311	-0.23
343.576	-64.23
343.842	-22.23
344.108	133.77
344.374	26.77
344.639	-88.23
344.905	-74.23
345.171	66.77
345.436	-49.23
345.702	-97.23
345.967	57.77
346.233	94.77
346.499	27.77
346.764	-148.23
347.03	-56.23
347.295	-30.23
347.561	4.77
347.826	-30.23
348.092	-97.23
348.357	-20.23
348.623	-15.23
348.888	-110.23
349.154	-81.23
349.419	61.77
349.685	18.77
349.95	-51.23
350.216	-42.23
350.481	58.77
350.747	-40.23
351.012	-159.23
351.277	-99.23
351.543	47.77
351.808	-14.23
352.074	-153.23
352.339	-107.23
352.604	57.77
352.87	22.77
353.135	-94.23
353.4	-53.23
353.666	14.77
353.931	-11.23
354.196	-135.23
354.461	-115.23
354.727	54.77
354.992	35.77
355.257	-112.23
355.522	-14.23
355.788	44.77
356.053	92.77
356.318	-60.23
356.583	-78.23
356.848	139.77
357.113	241.77
357.379	-28.23
357.644	-55.23
357.909	137.77
358.174	149.77
358.439	-91.23
358.704	-24.23
358.969	92.77
359.234	97.77
359.499	-91.23
359.765	-0.23
360.03	125.77
360.295	120.77
360.56	-64.23
360.825	11.77
361.09	224.77
361.355	45.77
361.62	13.77
361.885	54.77
362.15	40.77
362.415	48.77
362.679	-20.23
362.944	129.77
363.209	163.77
363.474	163.77
363.739	102.77
364.004	16.77
364.269	95.77
364.534	151.77
364.799	107.77
365.063	100.77
365.328	216.77
365.593	190.77
365.858	73.77
366.123	84.77
366.387	236.77
366.652	146.77
366.917	38.77
367.182	130.77
367.447	267.77
367.711	223.77
367.976	162.77
368.241	224.77
368.505	297.77
368.77	203.77
369.035	191.77
369.299	254.77
369.564	305.77
369.829	213.77
370.093	171.77
370.358	171.77
370.623	289.77
370.887	317.77
371.152	195.77
371.416	259.77
371.681	305.77
371.946	214.77
372.21	208.77
372.475	341.77
372.739	378.77
373.004	324.77
373.268	285.77
373.533	355.77
373.797	431.77
374.062	432.77
374.326	275.77
374.591	361.77
374.855	449.77
375.12	395.77
375.384	251.77
375.648	342.77
375.913	492.77
376.177	518.77
376.442	405.77
376.706	433.77
376.97	595.77
377.235	531.77
377.499	501.77
377.763	532.77
378.028	518.77
378.292	581.77
378.556	502.77
378.821	458.77
379.085	571.77
379.349	533.77
379.614	481.77
379.878	590.77
380.142	751.77
380.406	679.77
380.671	673.77
380.935	842.77
381.199	969.77
381.463	850.77
381.727	797.77
381.991	793.77
382.256	873.77
382.52	838.77
382.784	847.77
383.048	979.77
383.312	940.77
383.576	935.77
383.84	828.77
384.104	891.77
384.369	1013.77
384.633	940.77
384.897	857.77
385.161	998.77
385.425	1109.77
385.689	1035.77
385.953	983.77
386.217	1012.77
386.481	1139.77
386.745	1162.77
387.009	1131.77
387.273	1110.77
387.537	1202.77
387.801	1239.77
388.064	1212.77
388.328	1281.77
388.592	1342.77
388.856	1297.77
389.12	1253.77
389.384	1330.77
389.648	1378.77
389.912	1446.77
390.176	1487.77
390.439	1609.77
390.703	1449.77
390.967	1438.77
391.231	1387.77
391.495	1472.77
391.758	1546.77
392.022	1566.77
392.286	1458.77
392.55	1499.77
392.813	1634.77
393.077	1695.77
393.341	1619.77
393.605	1730.77
393.868	1720.77
394.132	1727.77
394.396	1662.77
394.659	1810.77
394.923	1780.77
395.187	1746.77
395.45	1740.77
395.714	1825.77
395.978	1850.77
396.241	1840.77
396.505	1821.77
396.768	1901.77
397.032	1975.77
397.295	1999.77
397.559	1925.77
397.823	1880.77
398.086	2060.77
398.35	2028.77
398.613	1917.77
398.877	2015.77
399.14	2190.77
399.404	2258.77
399.667	2166.77
399.931	2087.77
400.194	2174.77
400.457	2181.77
400.721	2215.77
400.984	2303.77
401.248	2235.77
401.511	2235.77
401.775	2155.77
402.038	2230.77
402.301	2440.77
402.565	2427.77
402.828	2224.77
403.091	2296.77
403.355	2488.77
403.618	2509.77
403.881	2432.77
404.145	2471.77
404.408	2562.77
404.671	2543.77
404.934	2599.77
405.198	2649.77
405.461	2643.77
405.724	2651.77
405.987	2660.77
406.251	2740.77
406.514	2863.77
406.777	2705.77
407.04	2633.77
407.303	2618.77
407.567	2750.77
407.83	2830.77
408.093	2674.77
408.356	2808.77
408.619	2935.77
408.882	3004.77
409.145	2897.77
409.408	2853.77
409.672	2959.77
409.935	2873.77
410.198	2786.77
410.461	2890.77
410.724	3147.77
410.987	3073.77
411.25	2876.77
411.513	3028.77
411.776	3080.77
412.039	2960.77
412.302	2908.77
412.565	3021.77
412.828	3031.77
413.091	2997.77
413.354	2909.77
413.617	2918.77
413.879	3001.77
414.142	3033.77
414.405	2905.77
414.668	2921.77
414.931	3023.77
415.194	3016.77
415.457	2922.77
415.72	2989.77
415.983	3007.77
416.245	3024.77
416.508	2940.77
416.771	2899.77
417.034	3027.77
417.297	2994.77
417.559	2949.77
417.822	2925.77
418.085	3049.77
418.348	3056.77
418.61	2922.77
418.873	2867.77
419.136	2917.77
419.399	2927.77
419.661	2982.77
419.924	2955.77
420.187	3039.77
420.449	3031.77
420.712	2965.77
420.975	2942.77
421.237	3049.77
421.5	3079.77
421.762	3146.77
422.025	3170.77
422.288	3254.77
422.55	3065.77
422.813	2981.77
423.075	3087.77
423.338	3166.77
423.601	3202.77
423.863	3154.77
424.126	3198.77
424.388	3340.77
424.651	3284.77
424.913	3251.77
425.176	3257.77
425.438	3263.77
425.701	3293.77
425.963	3187.77
426.225	3199.77
426.488	3278.77
426.75	3334.77
427.013	3287.77
427.275	3344.77
427.538	3341.77
427.8	3345.77
428.062	3277.77
428.325	3330.77
428.587	3424.77
428.849	3393.77
429.112	3406.77
429.374	3387.77
429.636	3411.77
429.899	3511.77
430.161	3411.77
430.423	3455.77
430.686	3625.77
430.948	3601.77
431.21	3442.77
431.472	3403.77
431.735	3552.77
431.997	3590.77
432.259	3536.77
432.521	3422.77
432.783	3612.77
433.046	3606.77
433.308	3449.77
433.57	3464.77
433.832	3752.77
434.094	3557.77
434.356	3425.77
434.618	3541.77
434.881	3589.77
435.143	3692.77
435.405	3689.77
435.667	3637.77
435.929	3640.77
436.191	3639.77
436.453	3589.77
436.715	3715.77
436.977	3852.77
437.239	3861.77
437.501	3779.77
437.763	3789.77
438.025	3859.77
438.287	3794.77
438.549	3766.77
438.811	3765.77
439.073	3791.77
439.335	3818.77
439.597	3741.77
439.859	3731.77
440.121	3863.77
440.383	3775.77
440.645	3719.77
440.907	3795.77
441.168	3797.77
441.43	3770.77
441.692	3820.77
441.954	3867.77
442.216	3924.77
442.478	3855.77
442.74	3715.77
443.001	3873.77
443.263	4069.77
443.525	3895.77
443.787	3759.77
444.048	3752.77
444.31	3812.77
444.572	3861.77
444.834	3826.77
445.095	3805.77
445.357	3987.77
445.619	3802.77
445.881	3665.77
446.142	3781.77
446.404	3804.77
446.666	3813.77
446.927	3843.77
447.189	3998.77
447.451	4027.77
447.712	3829.77
447.974	3687.77
448.235	3731.77
448.497	3835.77
448.759	3803.77
449.02	3808.77
449.282	3767.77
449.543	3901.77
449.805	3951.77
450.066	3725.77
450.328	3832.77
450.59	4042.77
450.851	3873.77
451.113	3735.77
451.374	3711.77
451.636	3937.77
451.897	3953.77
452.158	3840.77
452.42	3932.77
452.681	3983.77
452.943	3785.77
453.204	3823.77
453.466	3837.77
453.727	3792.77
453.988	3850.77
454.25	3764.77
454.511	3811.77
454.773	3909.77
455.034	4008.77
455.295	3752.77
455.557	3907.77
455.818	3896.77
456.079	3868.77
456.341	3974.77
456.602	4015.77
456.863	4097.77
457.124	3932.77
457.386	3786.77
457.647	3803.77
457.908	3913.77
458.169	4065.77
458.431	3895.77
458.692	3954.77
458.953	3993.77
459.214	3958.77
459.476	4128.77
459.737	4260.77
459.998	4251.77
460.259	4086.77
460.52	4057.77
460.781	4214.77
461.043	4355.77
461.304	4242.77
461.565	4070.77
461.826	4143.77
462.087	4306.77
462.348	4425.77
462.609	4361.77
462.87	4329.77
463.131	4289.77
463.392	4486.77
463.653	4473.77
463.914	4468.77
464.175	4440.77
464.436	4488.77
464.697	4492.77
464.958	4393.77
465.219	4455.77
465.48	4514.77
465.741	4570.77
466.002	4507.77
466.263	4682.77
466.524	4690.77
466.785	4538.77
467.046	4646.77
467.307	4797.77
467.568	4839.77
467.829	4828.77
468.089	4811.77
468.35	4862.77
468.611	4804.77
468.872	4741.77
469.133	4953.77
469.394	5134.77
469.655	5205.77
469.915	5078.77
470.176	4945.77
470.437	5032.77
470.698	5210.77
470.958	5208.77
471.219	5230.77
471.48	5354.77
471.741	5458.77
472.001	5422.77
472.262	5365.77
472.523	5608.77
472.784	5704.77
473.044	5558.77
473.305	5611.77
473.566	5649.77
473.826	5778.77
474.087	5739.77
474.348	5805.77
474.608	5967.77
474.869	5971.77
475.129	5878.77
475.39	5957.77
475.651	6119.77
475.911	6289.77
476.172	6132.77
476.432	6210.77
476.693	6435.77
476.953	6342.77
477.214	6357.77
477.475	6430.77
477.735	6470.77
477.996	6611.77
478.256	6449.77
478.517	6580.77
478.777	6711.77
479.038	6814.77
479.298	6883.77
479.558	6875.77
479.819	6969.77
480.079	6988.77
480.34	7048.77
480.6	7040.77
480.861	7216.77
481.121	7241.77
481.381	7207.77
481.642	7287.77
481.902	7298.77
482.162	7344.77
482.423	7358.77
482.683	7469.77
482.943	7636.77
483.204	7536.77
483.464	7486.77
483.724	7548.77
483.985	7652.77
484.245	7799.77
484.505	7731.77
484.765	7837.77
485.026	7935.77
485.286	7977.77
485.546	7945.77
485.806	7946.77
486.067	8015.77
486.327	7947.77
486.587	7923.77
486.847	7975.77
487.107	8138.77
487.368	8160.77
487.628	8065.77
487.888	8179.77
488.148	8314.77
488.408	8156.77
488.668	8264.77
488.928	8331.77
489.188	8346.77
489.449	8393.77
489.709	8313.77
489.969	8345.77
490.229	8451.77
490.489	8481.77
490.749	8371.77
491.009	8370.77
491.269	8488.77
491.529	8479.77
491.789	8514.77
492.049	8526.77
492.309	8602.77
492.569	8517.77
492.829	8514.77
493.089	8496.77
493.349	8656.77
493.609	8577.77
493.869	8483.77
494.129	8630.77
494.389	8675.77
494.648	8575.77
494.908	8493.77
495.168	8628.77
495.428	8792.77
495.688	8683.77
495.948	8540.77
496.208	8593.77
496.467	8640.77
496.727	8675.77
496.987	8659.77
497.247	8764.77
497.507	8857.77
497.767	8801.77
498.026	8609.77
498.286	8728.77
498.546	8919.77
498.806	8781.77
499.065	8850.77
499.325	8730.77
499.585	8696.77
499.845	8788.77
500.104	8790.77
500.364	8777.77
500.624	8773.77
500.883	8749.77
501.143	8767.77
501.403	8863.77
501.662	8946.77
501.922	8829.77
502.182	8658.77
502.441	8618.77
502.701	8792.77
502.96	8947.77
503.22	8813.77
503.48	8769.77
503.739	8850.77
503.999	8803.77
504.258	8777.77
504.518	8781.77
504.777	8883.77
505.037	8876.77
505.296	8764.77
505.556	8742.77
505.815	8911.77
506.075	8971.77
506.334	8879.77
506.594	8718.77
506.853	8771.77
507.113	8784.77
507.372	8661.77
507.632	8801.77
507.891	8853.77
508.151	8848.77
508.41	8707.77
508.669	8741.77
508.929	8843.77
509.188	8773.77
509.447	8774.77
509.707	8729.77
509.966	8807.77
510.226	8818.77
510.485	8760.77
510.744	8815.77
511.004	8862.77
511.263	8759.77
511.522	8723.77
511.781	8703.77
512.041	8867.77
512.3	8810.77
512.559	8837.77
512.818	8855.77
513.078	8888.77
513.337	8872.77
513.596	8707.77
513.855	8786.77
514.115	8873.77
514.374	8813.77
514.633	8729.77
514.892	8699.77
515.151	8892.77
515.41	8926.77
515.67	8865.77
515.929	8839.77
516.188	8962.77
516.447	8895.77
516.706	8797.77
516.965	8833.77
517.224	8870.77
517.483	8857.77
517.743	8778.77
518.002	8851.77
518.261	8907.77
518.52	8899.77
518.779	8831.77
519.038	8860.77
519.297	8862.77
519.556	8899.77
519.815	8805.77
520.074	8784.77
520.333	8935.77
520.592	8913.77
520.851	8775.77
521.11	8882.77
521.369	8966.77
521.628	8831.77
521.887	8745.77
522.145	8809.77
522.404	8822.77
522.663	8892.77
522.922	8739.77
523.181	8695.77
523.44	8872.77
523.699	8940.77
523.958	8719.77
524.217	8723.77
524.475	8758.77
524.734	8784.77
524.993	8774.77
525.252	8800.77
525.511	8793.77
525.769	8788.77
526.028	8698.77
526.287	8747.77
526.546	8827.77
526.805	8803.77
527.063	8709.77
527.322	8715.77
527.581	8778.77
527.839	8810.77
528.098	8823.77
528.357	8798.77
528.616	8786.77
528.874	8764.77
529.133	8733.77
529.392	8771.77
529.65	8777.77
529.909	8754.77
530.168	8669.77
530.426	8671.77
530.685	8781.77
530.943	8719.77
531.202	8668.77
531.461	8656.77
531.719	8765.77
531.978	8720.77
532.236	8629.77
532.495	8718.77
532.753	8796.77
533.012	8749.77
533.271	8657.77
533.529	8578.77
533.788	8676.77
534.046	8635.77
534.305	8576.77
534.563	8792.77
534.822	8853.77
535.08	8785.77
535.338	8666.77
535.597	8687.77
535.855	8776.77
536.114	8731.77
536.372	8675.77
536.631	8765.77
536.889	8800.77
537.147	8741.77
537.406	8574.77
537.664	8723.77
537.923	8774.77
538.181	8788.77
538.439	8641.77
538.698	8814.77
538.956	8827.77
539.214	8769.77
539.473	8752.77
539.731	8816.77
539.989	8935.77
540.248	8869.77
540.506	8802.77
540.764	8870.77
541.022	8941.77
541.281	8976.77
541.539	8844.77
541.797	8833.77
542.055	8976.77
542.314	9076.77
542.572	9085.77
542.83	8976.77
543.088	9041.77
543.346	9056.77
543.604	8969.77
543.863	9052.77
544.121	9196.77
544.379	9099.77
544.637	9018.77
544.895	9197.77
545.153	9334.77
545.411	9161.77
545.67	9017.77
545.928	9178.77
546.186	9270.77
546.444	9314.77
546.702	9274.77
546.96	9325.77
547.218	9362.77
547.476	9453.77
547.734	9342.77
547.992	9390.77
548.25	9597.77
548.508	9539.77
548.766	9504.77
549.024	9543.77
549.282	9613.77
549.54	9675.77
549.798	9624.77
550.056	9653.77
550.314	9835.77
550.572	9798.77
550.83	9639.77
551.088	9744.77
551.346	9910.77
551.603	9999.77
551.861	9902.77
552.119	9953.77
552.377	10024.77
552.635	9895.77
552.893	9856.77
553.151	9961.77
553.409	10095.77
553.666	10104.77
553.924	10090.77
554.182	10134.77
554.44	10271.77
554.698	10376.77
554.955	10198.77
555.213	10206.77
555.471	10380.77
555.729	10357.77
555.986	10219.77
556.244	10282.77
556.502	10507.77
556.76	10425.77
557.017	10388.77
557.275	10417.77
557.533	10602.77
557.79	10549.77
558.048	10375.77
558.306	10464.77
558.563	10589.77
558.821	10530.77
559.079	10467.77
559.336	10529.77
559.594	10594.77
559.852	10547.77
560.109	10467.77
560.367	10631.77
560.624	10735.77
560.882	10654.77
561.14	10681.77
561.397	10768.77
561.655	10698.77
561.912	10655.77
562.17	10604.77
562.427	10688.77
562.685	10807.77
562.942	10802.77
563.2	10715.77
563.457	10746.77
563.715	10799.77
563.972	10813.77
564.23	10630.77
564.487	10625.77
564.745	10715.77
565.002	10765.77
565.26	10638.77
565.517	10582.77
565.774	10705.77
566.032	10764.77
566.289	10670.77
566.547	10716.77
566.804	10827.77
567.061	10765.77
567.319	10676.77
567.576	10680.77
567.833	10743.77
568.091	10815.77
568.348	10735.77
568.605	10735.77
568.863	10805.77
569.12	10745.77
569.377	10590.77
569.635	10560.77
569.892	10651.77
570.149	10562.77
570.406	10418.77
570.664	10487.77
570.921	10627.77
571.178	10515.77
571.435	10481.77
571.693	10458.77
571.95	10510.77
572.207	10393.77
572.464	10308.77
572.721	10422.77
572.979	10484.77
573.236	10392.77
573.493	10278.77
573.75	10317.77
574.007	10409.77
574.264	10267.77
574.521	10196.77
574.779	10170.77
575.036	10193.77
575.293	10147.77
575.55	10083.77
575.807	10047.77
576.064	10055.77
576.321	10001.77
576.578	9832.77
576.835	9757.77
577.092	9941.77
577.349	9866.77
577.606	9612.77
577.863	9589.77
578.12	9714.77
578.377	9658.77
578.634	9427.77
578.891	9402.77
579.148	9518.77
579.405	9417.77
579.662	9284.77
579.919	9363.77
580.176	9347.77
580.433	9280.77
580.69	9224.77
580.947	9127.77
581.204	9163.77
581.461	9102.77
581.717	8954.77
581.974	9061.77
582.231	9043.77
582.488	8870.77
582.745	8651.77
583.002	8663.77
583.259	8813.77
583.515	8701.77
583.772	8499.77
584.029	8561.77
584.286	8637.77
584.543	8419.77
584.799	8390.77
585.056	8432.77
585.313	8478.77
585.57	8422.77
585.826	8197.77
586.083	8310.77
586.34	8456.77
586.597	8166.77
586.853	8022.77
587.11	8042.77
587.367	8131.77
587.623	8089.77
587.88	8000.77
588.137	7893.77
588.393	7946.77
588.65	7819.77
588.907	7693.77
589.163	7755.77
589.42	7761.77
589.677	7727.77
589.933	7615.77
590.19	7643.77
590.446	7705.77
590.703	7687.77
590.96	7469.77
591.216	7417.77
591.473	7488.77
591.729	7498.77
591.986	7439.77
592.242	7475.77
592.499	7629.77
592.755	7431.77
593.012	7294.77
593.268	7407.77
593.525	7322.77
593.781	7310.77
594.038	7221.77
594.294	7258.77
594.551	7271.77
594.807	7201.77
595.064	7184.77
595.32	7165.77
595.576	7213.77
595.833	7234.77
596.089	7132.77
596.346	7234.77
596.602	7269.77
596.858	7256.77
597.115	7119.77
597.371	7179.77
597.628	7147.77
597.884	7090.77
598.14	7021.77
598.397	7134.77
598.653	7199.77
598.909	7059.77
599.166	6975.77
599.422	6999.77
599.678	7032.77
599.934	7071.77
600.191	6920.77
600.447	6926.77
600.703	7046.77
600.959	6970.77
601.216	6770.77
601.472	6819.77
601.728	6915.77
601.984	6877.77
602.241	6802.77
602.497	6855.77
602.753	6948.77
603.009	6891.77
603.265	6785.77
603.521	6904.77
603.778	7022.77
604.034	6894.77
604.29	6774.77
604.546	6868.77
604.802	6945.77
605.058	6827.77
605.314	6746.77
605.571	6815.77
605.827	6798.77
606.083	6766.77
606.339	6765.77
606.595	6872.77
606.851	6980.77
607.107	6971.77
607.363	6724.77
607.619	6738.77
607.875	6929.77
608.131	6931.77
608.387	6652.77
608.643	6695.77
608.899	6774.77
609.155	6721.77
609.411	6682.77
609.667	6678.77
609.923	6735.77
610.179	6670.77
610.435	6504.77
610.691	6585.77
610.947	6768.77
611.203	6684.77
611.459	6592.77
611.714	6630.77
611.97	6827.77
612.226	6738.77
612.482	6551.77
612.738	6677.77
612.994	6778.77
613.25	6588.77
613.505	6494.77
613.761	6520.77
614.017	6652.77
614.273	6611.77
614.529	6485.77
614.785	6447.77
615.04	6518.77
615.296	6494.77
615.552	6505.77
615.808	6483.77
616.063	6523.77
616.319	6535.77
616.575	6387.77
616.831	6437.77
617.086	6566.77
617.342	6557.77
617.598	6434.77
617.854	6504.77
618.109	6524.77
618.365	6314.77
618.621	6233.77
618.876	6319.77
619.132	6423.77
619.388	6336.77
619.643	6160.77
619.899	6270.77
620.155	6331.77
620.41	6312.77
620.666	6195.77
620.921	6256.77
621.177	6382.77
621.433	6379.77
621.688	6231.77
621.944	6167.77
622.199	6201.77
622.455	6193.77
622.71	6070.77
622.966	6121.77
623.221	6099.77
623.477	6083.77
623.732	6085.77
623.988	6039.77
624.243	6093.77
624.499	6058.77
624.754	5910.77
625.01	5942.77
625.265	6010.77
625.521	6100.77
625.776	5946.77
626.032	5932.77
626.287	5996.77
626.543	5946.77
626.798	5831.77
627.053	5849.77
627.309	5889.77
627.564	5818.77
627.82	5813.77
628.075	5911.77
628.33	5865.77
628.586	5753.77
628.841	5615.77
629.096	5700.77
629.352	5772.77
629.607	5666.77
629.862	5606.77
630.118	5691.77
630.373	5634.77
630.628	5658.77
630.884	5546.77
631.139	5568.77
631.394	5702.77
631.649	5646.77
631.905	5472.77
632.16	5523.77
632.415	5710.77
632.67	5556.77
632.926	5371.77
633.181	5347.77
633.436	5498.77
633.691	5450.77
633.946	5274.77
634.202	5311.77
634.457	5371.77
634.712	5291.77
634.967	5179.77
635.222	5190.77
635.477	5326.77
635.733	5283.77
635.988	5171.77
636.243	5171.77
636.498	5313.77
636.753	5208.77
637.008	5033.77
637.263	5135.77
637.518	5185.77
637.773	5145.77
638.028	5095.77
638.283	5118.77
638.539	5200.77
638.794	5147.77
639.049	5006.77
639.304	4956.77
639.559	5008.77
639.814	5006.77
640.069	4955.77
640.324	4920.77
640.579	5000.77
640.834	4950.77
641.089	4850.77
641.344	4955.77
641.598	5137.77
641.853	4954.77
642.108	4755.77
642.363	4704.77
642.618	4867.77
642.873	4775.77
643.128	4691.77
643.383	4707.77
643.638	4781.77
643.893	4869.77
644.148	4795.77
644.402	4693.77
644.657	4764.77
644.912	4694.77
645.167	4629.77
645.422	4716.77
645.677	4687.77
645.931	4707.77
646.186	4681.77
646.441	4587.77
646.696	4566.77
646.951	4584.77
647.205	4534.77
647.46	4514.77
647.715	4588.77
647.97	4747.77
648.224	4796.77
648.479	4601.77
648.734	4713.77
648.989	4692.77
649.243	4574.77
649.498	4496.77
649.753	4527.77
650.007	4607.77
650.262	4496.77
650.517	4422.77
650.771	4477.77
651.026	4417.77
651.281	4334.77
651.535	4411.77
651.79	4446.77
652.045	4401.77
652.299	4296.77
652.554	4326.77
652.809	4437.77
653.063	4584.77
653.318	4469.77
653.572	4378.77
653.827	4478.77
654.081	4369.77
654.336	4240.77
654.591	4273.77
654.845	4366.77
655.1	4293.77
655.354	4242.77
655.609	4277.77
655.863	4406.77
656.118	4368.77
656.372	4228.77
656.627	4258.77
656.881	4338.77
657.136	4282.77
657.39	4156.77
657.645	4237.77
657.899	4393.77
658.153	4270.77
658.408	4201.77
658.662	4278.77
658.917	4302.77
659.171	4129.77
659.426	4046.77
659.68	4141.77
659.934	4256.77
660.189	4212.77
660.443	4100.77
660.697	4286.77
660.952	4357.77
661.206	4210.77
661.46	4047.77
661.715	4141.77
661.969	4237.77
662.223	4226.77
662.478	4137.77
662.732	4170.77
662.986	4228.77
663.241	4258.77
663.495	4112.77
663.749	4162.77
664.003	4328.77
664.258	4251.77
664.512	4162.77
664.766	4211.77
665.02	4273.77
665.275	4279.77
665.529	4111.77
665.783	4131.77
666.037	4229.77
666.291	4246.77
666.546	4134.77
666.8	4145.77
667.054	4160.77
667.308	4236.77
667.562	4077.77
667.816	4131.77
668.071	4269.77
668.325	4186.77
668.579	4183.77
668.833	4263.77
669.087	4373.77
669.341	4271.77
669.595	4162.77
669.849	4215.77
670.103	4254.77
670.357	4262.77
670.612	4238.77
670.866	4205.77
671.12	4283.77
671.374	4286.77
671.628	4241.77
671.882	4182.77
672.136	4296.77
672.39	4303.77
672.644	4142.77
672.898	4340.77
673.152	4504.77
673.406	4417.77
673.66	4334.77
673.914	4372.77
674.168	4407.77
674.422	4357.77
674.675	4253.77
674.929	4322.77
675.183	4462.77
675.437	4431.77
675.691	4332.77
675.945	4396.77
676.199	4533.77
676.453	4421.77
676.707	4274.77
676.961	4345.77
677.214	4458.77
677.468	4446.77
677.722	4471.77
677.976	4450.77
678.23	4529.77
678.484	4541.77
678.737	4395.77
678.991	4438.77
679.245	4476.77
679.499	4453.77
679.753	4411.77
680.006	4537.77
680.26	4654.77
680.514	4624.77
680.768	4460.77
681.021	4504.77
681.275	4552.77
681.529	4572.77
681.783	4522.77
682.036	4546.77
682.29	4581.77
682.544	4573.77
682.797	4475.77
683.051	4512.77
683.305	4626.77
683.559	4643.77
683.812	4629.77
684.066	4633.77
684.32	4687.77
684.573	4645.77
684.827	4702.77
685.08	4756.77
685.334	4822.77
685.588	4691.77
685.841	4572.77
686.095	4784.77
686.348	4762.77
686.602	4753.77
686.856	4685.77
687.109	4672.77
687.363	4752.77
687.616	4710.77
687.87	4572.77
688.123	4616.77
688.377	4745.77
688.63	4823.77
688.884	4786.77
689.137	4846.77
689.391	4874.77
689.644	4732.77
689.898	4629.77
690.151	4670.77
690.405	4816.77
690.658	4780.77
690.912	4764.77
691.165	4758.77
691.419	4834.77
691.672	4877.77
691.926	4782.77
692.179	4757.77
692.432	4824.77
692.686	4778.77
692.939	4700.77
693.193	4758.77
693.446	4886.77
693.699	4889.77
693.953	4866.77
694.206	4869.77
694.459	4976.77
694.713	4974.77
694.966	4778.77
695.219	4811.77
695.473	4932.77
695.726	4858.77
695.979	4770.77
696.233	4840.77
696.486	4943.77
696.739	4954.77
696.992	4830.77
697.246	4901.77
697.499	4995.77
697.752	4821.77
698.006	4849.77
698.259	4941.77
698.512	4906.77
698.765	4861.77
699.018	4802.77
699.272	4837.77
699.525	4858.77
699.778	4830.77
700.031	4800.77
700.284	4763.77
700.538	4860.77
700.791	4843.77
701.044	4827.77
701.297	4851.77
701.55	4899.77
701.803	4837.77
702.056	4747.77
702.31	4794.77
702.563	4921.77
702.816	4800.77
703.069	4637.77
703.322	4703.77
703.575	4825.77
703.828	4903.77
704.081	4780.77
704.334	4777.77
704.587	4844.77
704.84	4777.77
705.093	4767.77
705.346	4875.77
705.599	4828.77
705.853	4832.77
706.106	4872.77
706.359	5139.77
706.612	4901.77
706.865	4889.77
707.118	4734.77
707.37	4767.77
707.623	4902.77
707.876	4866.77
708.129	4819.77
708.382	4867.77
708.635	4940.77
708.888	4761.77
709.141	4645.77
709.394	4742.77
709.647	4835.77
709.9	4734.77
710.153	4612.77
710.406	4735.77
710.658	4807.77
710.911	4709.77
711.164	4580.77
711.417	4593.77
711.67	4632.77
711.923	4719.77
712.176	4617.77
712.428	4673.77
712.681	4743.77
712.934	4713.77
713.187	4628.77
713.44	4584.77
713.692	4693.77
713.945	4607.77
714.198	4501.77
714.451	4481.77
714.704	4618.77
714.956	4630.77
715.209	4659.77
715.462	4635.77
715.715	4610.77
715.967	4607.77
716.22	4437.77
716.473	4455.77
716.725	4637.77
716.978	4634.77
717.231	4578.77
717.484	4607.77
717.736	4530.77
717.989	4447.77
718.242	4410.77
718.494	4536.77
718.747	4613.77
718.999	4512.77
719.252	4510.77
719.505	4516.77
719.757	4506.77
720.01	4449.77
720.263	4394.77
720.515	4426.77
720.768	4532.77
721.02	4500.77
721.273	4326.77
721.525	4246.77
721.778	4337.77
722.031	4434.77
722.283	4257.77
722.536	4256.77
722.788	4342.77
723.041	4258.77
723.293	4216.77
723.546	4234.77
723.798	4327.77
724.051	4378.77
724.303	4319.77
724.556	4322.77
724.808	4424.77
725.061	4342.77
725.313	4209.77
725.566	4198.77
725.818	4227.77
726.071	4198.77
726.323	4055.77
726.575	4130.77
726.828	4270.77
727.08	4287.77
727.333	4107.77
727.585	4123.77
727.837	4221.77
728.09	4195.77
728.342	4074.77
728.595	4120.77
728.847	4249.77
729.099	4005.77
729.352	3985.77
729.604	3983.77
729.856	4076.77
730.109	4083.77
730.361	3969.77
730.613	4031.77
730.866	4152.77
731.118	4049.77
731.37	3964.77
731.622	3954.77
731.875	4009.77
732.127	4021.77
732.379	4003.77
732.631	4076.77
732.884	4011.77
733.136	3926.77
733.388	3813.77
733.64	3905.77
733.893	4013.77
734.145	3924.77
734.397	3799.77
734.649	3813.77
734.901	3878.77
735.154	3778.77
735.406	3706.77
735.658	3796.77
735.91	3924.77
736.162	3848.77
736.414	3711.77
736.667	3817.77
736.919	3828.77
737.171	3697.77
737.423	3632.77
737.675	3681.77
737.927	3785.77
738.179	3713.77
738.431	3639.77
738.684	3617.77
738.936	3726.77
739.188	3765.77
739.44	3531.77
739.692	3574.77
739.944	3585.77
740.196	3567.77
740.448	3510.77
740.7	3537.77
740.952	3600.77
741.204	3584.77
741.456	3485.77
741.708	3541.77
741.96	3575.77
742.212	3620.77
742.464	3570.77
742.716	3426.77
742.968	3514.77
743.22	3463.77
743.472	3361.77
743.724	3437.77
743.976	3593.77
744.228	3577.77
744.48	3367.77
744.732	3405.77
744.983	3529.77
745.235	3467.77
745.487	3400.77
745.739	3449.77
745.991	3426.77
746.243	3499.77
746.495	3323.77
746.747	3370.77
746.999	3463.77
747.25	3457.77
747.502	3384.77
747.754	3466.77
748.006	3401.77
748.258	3516.77
748.51	3525.77
748.761	3370.77
749.013	3440.77
749.265	3445.77
749.517	3432.77
749.768	3499.77
750.02	3502.77
750.272	3437.77
750.524	3238.77
750.776	3230.77
751.027	3415.77
751.279	3425.77
751.531	3223.77
751.782	3272.77
752.034	3363.77
752.286	3265.77
752.538	3143.77
752.789	3260.77
753.041	3328.77
753.293	3303.77
753.544	3199.77
753.796	3187.77
754.048	3281.77
754.299	3248.77
754.551	3242.77
754.803	3191.77
755.054	3229.77
755.306	3263.77
755.558	3128.77
755.809	3171.77
756.061	3292.77
756.312	3211.77
756.564	3191.77
756.816	3193.77
757.067	3135.77
757.319	3093.77
757.57	3049.77
757.822	3158.77
758.073	3240.77
758.325	3188.77
758.577	3044.77
758.828	3047.77
759.08	3228.77
759.331	3245.77
759.583	3031.77
759.834	3086.77
760.086	3060.77
760.337	3023.77
760.589	2986.77
760.84	2994.77
761.092	3042.77
761.343	3005.77
761.595	2904.77
761.846	3047.77
762.097	3014.77
762.349	2979.77
762.6	2842.77
762.852	2969.77
763.103	3078.77
763.355	2949.77
763.606	2904.77
763.857	3031.77
764.109	3118.77
764.36	2988.77
764.612	2876.77
764.863	2989.77
765.114	3019.77
765.366	2890.77
765.617	2794.77
765.868	2816.77
766.12	2945.77
766.371	2943.77
766.622	2777.77
766.874	2858.77
767.125	2994.77
767.376	2850.77
767.628	2768.77
767.879	2826.77
768.13	2911.77
768.381	2869.77
768.633	2821.77
768.884	2836.77
769.135	2893.77
769.386	2874.77
769.638	2828.77
769.889	2810.77
770.14	2853.77
770.391	2731.77
770.643	2672.77
770.894	2688.77
771.145	2822.77
771.396	2741.77
771.647	2625.77
771.899	2735.77
772.15	2819.77
772.401	2752.77
772.652	2607.77
772.903	2651.77
773.154	2990.77
773.406	3211.77
773.657	2694.77
773.908	2640.77
774.159	2726.77
774.41	2733.77
774.661	2602.77
774.912	2648.77
775.163	2787.77
775.414	2774.77
775.666	2550.77
775.917	2568.77
776.168	2603.77
776.419	2593.77
776.67	2498.77
776.921	2507.77
777.172	2611.77
777.423	2622.77
777.674	2624.77
777.925	2611.77
778.176	2527.77
778.427	2542.77
778.678	2443.77
778.929	2489.77
779.18	2621.77
779.431	2518.77
779.682	2495.77
779.933	2507.77
780.184	2595.77
780.435	2537.77
780.686	2456.77
780.937	2548.77
781.188	2597.77
781.439	2676.77
781.69	2570.77
781.941	2485.77
782.191	2501.77
782.442	2504.77
782.693	2408.77
782.944	2377.77
783.195	2453.77
783.446	2459.77
783.697	2474.77
783.948	2358.77
784.199	2407.77
784.449	2392.77
784.7	2387.77
784.951	2418.77
785.202	2559.77
785.453	2507.77
785.704	2337.77
785.954	2282.77
786.205	2320.77
786.456	2303.77
786.707	2230.77
786.958	2270.77
787.208	2391.77
787.459	2329.77
787.71	2358.77
787.961	2325.77
788.211	2360.77
788.462	2346.77
788.713	2292.77
788.964	2279.77
789.214	2382.77
789.465	2382.77
789.716	2294.77
789.967	2293.77
790.217	2282.77
790.468	2217.77
790.719	2188.77
790.969	2214.77
791.22	2253.77
791.471	2353.77
791.721	2365.77
791.972	2250.77
792.223	2284.77
792.473	2221.77
792.724	2203.77
792.975	2185.77
793.225	2255.77
793.476	2226.77
793.726	2194.77
793.977	2266.77
794.228	2374.77
794.478	2259.77
794.729	2136.77
794.979	2226.77
795.23	2243.77
795.481	2184.77
795.731	2062.77
795.982	2154.77
796.232	2158.77
796.483	2102.77
796.733	2018.77
796.984	2095.77
797.234	2178.77
797.485	2205.77
797.735	2071.77
797.986	2128.77
798.236	2223.77
798.487	2150.77
798.737	2083.77
798.988	2203.77
799.238	2239.77
799.489	2102.77
799.739	2017.77
799.99	2086.77
800.24	2171.77
800.491	2184.77
800.741	2061.77
800.991	2015.77
801.242	2099.77
801.492	2109.77
801.743	2063.77
801.993	2268.77
802.244	2448.77
802.494	2063.77
802.744	1997.77
802.995	2019.77
803.245	2077.77
803.495	2069.77
803.746	1996.77
803.996	2071.77
804.246	2067.77
804.497	2051.77
804.747	1917.77
804.997	2015.77
805.248	2031.77
805.498	1996.77
805.748	1983.77
805.999	1885.77
806.249	1965.77
806.499	1964.77
806.75	1849.77
807	1878.77
807.25	2005.77
807.5	1953.77
807.751	1962.77
808.001	2006.77
808.251	2002.77
808.501	2049.77
808.752	2051.77
809.002	1958.77
809.252	1938.77
809.502	1898.77
809.752	1885.77
810.003	1849.77
810.253	1913.77
810.503	1946.77
810.753	1981.77
811.003	1966.77
811.254	1985.77
811.504	1901.77
811.754	1869.77
812.004	1899.77
812.254	2123.77
812.504	1963.77
812.754	1834.77
813.005	1904.77
813.255	1994.77
813.505	1929.77
813.755	1807.77
814.005	1858.77
814.255	1894.77
814.505	1883.77
814.755	1775.77
815.005	1814.77
815.255	1894.77
815.505	1838.77
815.756	1862.77
816.006	1854.77
816.256	1798.77
816.506	1774.77
816.756	1703.77
817.006	1729.77
817.256	1854.77
817.506	1855.77
817.756	1755.77
818.006	1775.77
818.256	1825.77
818.506	1830.77
818.756	1689.77
819.006	1739.77
819.256	1826.77
819.506	1753.77
819.756	1702.77
820.006	1802.77
820.255	1835.77
820.505	1799.77
820.755	1711.77
821.005	1736.77
821.255	1825.77
821.505	1793.77
821.755	1736.77
822.005	1820.77
822.255	1865.77
822.505	1724.77
822.755	1752.77
823.004	1631.77
823.254	1708.77
823.504	1806.77
823.754	1750.77
824.004	1681.77
824.254	1794.77
824.504	1758.77
824.753	1773.77
825.003	1765.77
825.253	1832.77
825.503	1714.77
825.753	1633.77
826.002	1726.77
826.252	1936.77
826.502	1756.77
826.752	1650.77
827.002	1627.77
827.251	1699.77
827.501	1663.77
827.751	1602.77
828.001	1647.77
828.25	1733.77
828.5	1581.77
828.75	1538.77
829	1630.77
829.249	1737.77
829.499	1582.77
829.749	1577.77
829.998	1646.77
830.248	1692.77
830.498	1555.77
830.748	1559.77
830.997	1630.77
831.247	1685.77
831.497	1684.77
831.746	1602.77
831.996	1675.77
832.246	1794.77
832.495	1766.77
832.745	1515.77
832.994	1546.77
833.244	1702.77
833.494	1601.77
833.743	1498.77
833.993	1555.77
834.243	1634.77
834.492	1600.77
834.742	1568.77
834.991	1547.77
835.241	1725.77
835.49	1583.77
835.74	1463.77
835.99	1541.77
836.239	1599.77
836.489	1659.77
836.738	1551.77
836.988	1426.77
837.237	1547.77
837.487	1677.77
837.736	1533.77
837.986	1493.77
838.235	1577.77
838.485	1556.77
838.734	1527.77
838.984	1575.77
839.233	1556.77
839.483	1434.77
839.732	1420.77
839.982	1504.77
840.231	1583.77
840.481	1550.77
840.73	1451.77
840.979	1477.77
841.229	1513.77
841.478	1492.77
841.728	1357.77
841.977	1342.77
842.227	1418.77
842.476	1372.77
842.725	1312.77
842.975	1421.77
843.224	1530.77
843.474	1530.77
843.723	1400.77
843.972	1409.77
844.222	1466.77
844.471	1521.77
844.72	1404.77
844.97	1393.77
845.219	1482.77
845.468	1455.77
845.718	1372.77
845.967	1431.77
846.216	1483.77
846.466	1510.77
846.715	1370.77
846.964	1386.77
847.214	1385.77
847.463	1340.77
847.712	1357.77
847.961	1341.77
848.211	1393.77
848.46	1401.77
848.709	1358.77
848.958	1326.77
849.208	1386.77
849.457	1377.77
849.706	1382.77
849.955	1335.77
850.205	1298.77
850.454	1449.77
850.703	1488.77
850.952	1418.77
851.201	1439.77
851.451	1373.77
851.7	1378.77
851.949	1275.77
852.198	1357.77
852.447	1334.77
852.696	1270.77
852.946	1308.77
853.195	1400.77
853.444	1394.77
853.693	1205.77
853.942	1203.77
854.191	1307.77
854.44	1343.77
854.689	1286.77
854.939	1231.77
855.188	1215.77
855.437	1248.77
855.686	1231.77
855.935	1255.77
856.184	1310.77
856.433	1367.77
856.682	1289.77
856.931	1254.77
857.18	1308.77
857.429	1227.77
857.678	1181.77
857.927	1223.77
858.176	1242.77
858.425	1185.77
858.674	1127.77
858.924	1202.77
859.173	1194.77
859.422	1222.77
859.671	1123.77
859.92	1194.77
860.169	1238.77
860.417	1273.77
860.666	1175.77
860.915	1122.77
861.164	1177.77
861.413	1145.77
861.662	1070.77
861.911	1112.77
862.16	1229.77
862.409	1194.77
862.658	1067.77
862.907	1115.77
863.156	1215.77
863.405	1219.77
863.654	1106.77
863.903	1048.77
864.151	1128.77
864.4	1179.77
864.649	1134.77
864.898	1179.77
865.147	1206.77
865.396	1206.77
865.645	1064.77
865.894	1141.77
866.142	1277.77
866.391	1142.77
866.64	1019.77
866.889	1094.77
867.138	1240.77
867.387	1173.77
867.635	1057.77
867.884	1098.77
868.133	1205.77
868.382	1150.77
868.631	1002.77
868.879	1003.77
869.128	1120.77
869.377	1111.77
869.626	1031.77
869.874	1047.77
870.123	1152.77
870.372	1105.77
870.621	996.77
870.869	1041.77
871.118	1113.77
871.367	1098.77
871.616	997.77
871.864	1091.77
872.113	1151.77
872.362	1106.77
872.61	1026.77
872.859	1066.77
873.108	1114.77
873.357	1012.77
873.605	938.77
873.854	976.77
874.103	1004.77
874.351	1008.77
874.6	985.77
874.848	1029.77
875.097	1070.77
875.346	1058.77
875.594	938.77
875.843	1042.77
876.092	1175.77
876.34	1060.77
876.589	962.77
876.837	886.77
877.086	972.77
877.335	1036.77
877.583	958.77
877.832	994.77
878.08	1141.77
878.329	1031.77
878.578	917.77
878.826	949.77
879.075	1031.77
879.323	1031.77
879.572	946.77
879.82	1048.77
880.069	987.77
880.317	1014.77
880.566	909.77
880.814	1006.77
881.063	1117.77
881.311	1029.77
881.56	1033.77
881.808	942.77
882.057	992.77
882.305	979.77
882.554	984.77
882.802	865.77
883.051	923.77
883.299	920.77
883.548	892.77
883.796	976.77
884.045	967.77
884.293	905.77
884.541	800.77
884.79	782.77
885.038	883.77
885.287	886.77
885.535	904.77
885.783	919.77
886.032	894.77
886.28	851.77
886.529	801.77
886.777	861.77
887.025	1020.77
887.274	870.77
887.522	802.77
887.77	843.77
888.019	858.77
888.267	844.77
888.516	772.77
888.764	792.77
889.012	882.77
889.261	875.77
889.509	787.77
889.757	827.77
890.005	844.77
890.254	779.77
890.502	799.77
890.75	1002.77
890.999	999.77
891.247	941.77
891.495	873.77
891.743	837.77
891.992	971.77
892.24	880.77
892.488	764.77
892.737	775.77
892.985	864.77
893.233	846.77
893.481	795.77
893.729	776.77
893.978	928.77
894.226	943.77
894.474	785.77
894.722	775.77
894.97	806.77
895.219	798.77
895.467	807.77
895.715	831.77
895.963	804.77
896.211	766.77
896.46	704.77
896.708	799.77
896.956	879.77
897.204	921.77
897.452	822.77
897.7	775.77
897.948	839.77
898.197	779.77
898.445	734.77
898.693	761.77
898.941	807.77
899.189	807.77
899.437	738.77
899.685	807.77
899.933	778.77
900.181	778.77
900.43	686.77
900.678	743.77
900.926	802.77
901.174	753.77
901.422	707.77
901.67	717.77
901.918	787.77
902.166	775.77
902.414	609.77
902.662	651.77
902.91	760.77
903.158	755.77
903.406	683.77
903.654	688.77
903.902	731.77
904.15	696.77
904.398	590.77
904.646	703.77
904.894	792.77
905.142	789.77
905.39	728.77
905.638	667.77
905.886	703.77
906.134	683.77
906.382	682.77
906.63	645.77
906.878	715.77
907.126	687.77
907.374	621.77
907.622	661.77
907.869	780.77
908.117	731.77
908.365	662.77
908.613	634.77
908.861	653.77
909.109	618.77
909.357	572.77
909.605	634.77
909.853	736.77
910.1	666.77
910.348	521.77
910.596	551.77
910.844	733.77
911.092	757.77
911.34	642.77
911.588	648.77
911.835	690.77
912.083	682.77
912.331	667.77
912.579	691.77
912.827	833.77
913.075	709.77
913.322	567.77
913.57	583.77
913.818	740.77
914.066	660.77
914.313	592.77
914.561	670.77
914.809	695.77
915.057	656.77
915.305	607.77
915.552	613.77
915.8	718.77
916.048	608.77
916.296	539.77
916.543	639.77
916.791	724.77
917.039	651.77
917.286	525.77
917.534	538.77
917.782	667.77
918.03	587.77
918.277	485.77
918.525	478.77
918.773	607.77
919.02	601.77
919.268	513.77
919.516	557.77
919.763	573.77
920.011	571.77
920.259	486.77
920.506	563.77
920.754	646.77
921.002	635.77
921.249	585.77
921.497	556.77
921.745	592.77
921.992	589.77
922.24	464.77
922.487	593.77
922.735	733.77
922.983	651.77
923.23	567.77
923.478	526.77
923.725	612.77
923.973	600.77
924.221	579.77
924.468	611.77
924.716	596.77
924.963	581.77
925.211	503.77
925.458	560.77
925.706	674.77
925.953	695.77
926.201	523.77
926.448	501.77
926.696	601.77
926.944	566.77
927.191	490.77
927.439	490.77
927.686	513.77
927.934	542.77
928.181	441.77
928.429	450.77
928.676	527.77
928.923	458.77
929.171	401.77
929.418	541.77
929.666	590.77
929.913	579.77
930.161	407.77
930.408	430.77
930.656	505.77
930.903	549.77
931.151	415.77
931.398	452.77
931.645	585.77
931.893	485.77
932.14	443.77
932.388	458.77
932.635	600.77
932.882	634.77
933.13	520.77
933.377	459.77
933.625	531.77
933.872	455.77
934.119	386.77
934.367	438.77
934.614	459.77
934.861	428.77
935.109	431.77
935.356	470.77
935.603	512.77
935.851	453.77
936.098	374.77
936.345	488.77
936.593	518.77
936.84	468.77
937.087	348.77
937.335	401.77
937.582	482.77
937.829	503.77
938.077	478.77
938.324	447.77
938.571	505.77
938.818	433.77
939.066	389.77
939.313	369.77
939.56	487.77
939.807	479.77
940.055	364.77
940.302	384.77
940.549	535.77
940.796	460.77
941.044	414.77
941.291	444.77
941.538	571.77
941.785	467.77
942.033	398.77
942.28	454.77
942.527	502.77
942.774	481.77
943.021	341.77
943.269	374.77
943.516	467.77
943.763	469.77
944.01	401.77
944.257	466.77
944.504	529.77
944.752	490.77
944.999	442.77
945.246	368.77
945.493	433.77
945.74	430.77
945.987	353.77
946.234	421.77
946.482	517.77
946.729	399.77
946.976	335.77
947.223	389.77
947.47	526.77
947.717	481.77
947.964	463.77
948.211	431.77
948.458	490.77
948.705	416.77
948.952	323.77
949.2	394.77
949.447	528.77
949.694	520.77
949.941	364.77
950.188	363.77
950.435	396.77
950.682	401.77
950.929	273.77
951.176	322.77
951.423	478.77
951.67	461.77
951.917	412.77
952.164	404.77
952.411	473.77
952.658	509.77
952.905	328.77
953.152	281.77
953.399	424.77
953.646	408.77
953.893	294.77
954.14	333.77
954.387	387.77
954.634	393.77
954.881	330.77
955.128	377.77
955.375	342.77
955.622	367.77
955.869	349.77
956.115	332.77
956.362	417.77
956.609	373.77
956.856	307.77
957.103	314.77
957.35	421.77
957.597	426.77
957.844	356.77
958.091	342.77
958.338	414.77
958.585	355.77
958.831	206.77
959.078	267.77
959.325	421.77
959.572	304.77
959.819	218.77
960.066	192.77
960.313	320.77
960.559	297.77
960.806	168.77
961.053	223.77
961.3	403.77
961.547	403.77
961.794	217.77
962.04	378.77
962.287	394.77
962.534	255.77
962.781	222.77
963.028	306.77
963.274	425.77
963.521	332.77
963.768	253.77
964.015	294.77
964.262	452.77
964.508	305.77
964.755	223.77
965.002	230.77
965.249	279.77
965.495	226.77
965.742	182.77
965.989	206.77
966.236	322.77
966.482	261.77
966.729	203.77
966.976	171.77
967.222	261.77
967.469	280.77
967.716	209.77
967.963	208.77
968.209	297.77
968.456	266.77
968.703	155.77
968.949	246.77
969.196	411.77
969.443	419.77
969.689	179.77
969.936	163.77
970.183	277.77
970.429	221.77
970.676	169.77
970.923	257.77
971.169	296.77
971.416	219.77
971.663	183.77
971.909	233.77
972.156	322.77
972.402	317.77
972.649	233.77
972.896	247.77
973.142	271.77
973.389	309.77
973.635	211.77
973.882	296.77
974.129	357.77
974.375	237.77
974.622	145.77
974.868	168.77
975.115	269.77
975.361	209.77
975.608	160.77
975.855	286.77
976.101	328.77
976.348	265.77
976.594	180.77
976.841	237.77
977.087	232.77
977.334	289.77
977.58	155.77
977.827	149.77
978.073	291.77
978.32	240.77
978.566	102.77
978.813	175.77
979.059	217.77
979.306	202.77
979.552	132.77
979.799	206.77
980.045	200.77
980.292	202.77
980.538	128.77
980.785	130.77
981.031	165.77
981.278	136.77
981.524	82.77
981.771	233.77
982.017	364.77
982.263	289.77
982.51	152.77
982.756	208.77
983.003	266.77
983.249	207.77
983.495	108.77
983.742	113.77
983.988	191.77
984.235	228.77
984.481	119.77
984.727	113.77
984.974	258.77
985.22	242.77
985.467	154.77
985.713	152.77
985.959	273.77
986.206	248.77
986.452	165.77
986.698	209.77
986.945	214.77
987.191	261.77
987.437	254.77
987.684	201.77
987.93	350.77
988.176	263.77
988.423	82.77
988.669	170.77
988.915	332.77
989.162	166.77
989.408	78.77
989.654	150.77
989.901	157.77
990.147	162.77
990.393	176.77
990.639	234.77
990.886	251.77
991.132	286.77
991.378	240.77
991.625	365.77
991.871	325.77
992.117	220.77
992.363	167.77
992.61	210.77
992.856	303.77
993.102	153.77
993.348	101.77
993.594	154.77
993.841	206.77
994.087	328.77
994.333	182.77
994.579	148.77
994.826	191.77
995.072	201.77
995.318	11.77
995.564	75.77
995.81	205.77
996.057	155.77
996.303	62.77
996.549	82.77
996.795	177.77
997.041	166.77
997.287	112.77
997.534	107.77
997.78	175.77
998.026	184.77
998.272	63.77
998.518	70.77
998.764	219.77
999.01	250.77
999.256	138.77
999.503	93.77
999.749	124.77
999.995	87.77
1000.241	61.77
1000.487	137.77
1000.733	199.77
1000.979	157.77
1001.225	104.77
1001.471	159.77
1001.718	218.77
1001.964	248.77
1002.21	80.77
1002.456	103.77
1002.702	253.77
1002.948	169.77
1003.194	90.77
1003.44	71.77
1003.686	158.77
1003.932	105.77
1004.178	86.77
1004.424	148.77
1004.67	279.77
1004.916	243.77
1005.162	137.77
1005.408	90.77
1005.654	226.77
1005.9	62.77
1006.146	10.77
1006.392	96.77
1006.638	178.77
1006.884	120.77
1007.13	45.77
1007.376	31.77
1007.622	207.77
1007.868	225.77
1008.114	85.77
1008.36	144.77
1008.606	185.77
1008.852	184.77
1009.098	147.77
1009.344	176.77
1009.59	166.77
1009.836	56.77
1010.082	-16.23
1010.328	74.77
1010.574	157.77
1010.82	64.77
1011.065	-4.23
1011.311	1.77
1011.557	98.77
1011.803	71.77
1012.049	24.77
1012.295	58.77
1012.541	108.77
1012.787	122.77
1013.033	-4.23
1013.278	-29.23
1013.524	111.77
1013.77	190.77
1014.016	91.77
1014.262	93.77
1014.508	201.77
1014.754	41.77
1015	2.77
1015.245	149.77
1015.491	182.77
1015.737	152.77
1015.983	18.77
1016.229	-16.23
1016.475	102.77
1016.72	232.77
1016.966	230.77
1017.212	127.77
1017.458	197.77
1017.704	108.77
1017.949	-6.23
1018.195	159.77
1018.441	268.77
1018.687	207.77
1018.933	46.77
1019.178	37.77
1019.424	192.77
1019.67	208.77
1019.916	5.77
1020.161	48.77
1020.407	117.77
1020.653	55.77
1020.899	-9.23
1021.144	63.77
1021.39	143.77
1021.636	30.77
1021.882	-63.23
1022.127	54.77
1022.373	204.77
1022.619	145.77
1022.865	39.77
1023.11	46.77
1023.356	173.77
1023.602	109.77
1023.847	39.77
1024.093	69.77
1024.339	45.77
1024.584	26.77
1024.83	4.77
1025.076	24.77
1025.321	139.77
1025.567	125.77
1025.813	7.77
1026.058	80.77
1026.304	142.77
1026.55	63.77
1026.795	27.77
1027.041	25.77
1027.287	105.77
1027.532	121.77
1027.778	95.77
1028.024	59.77
1028.269	93.77
1028.515	12.77
1028.76	-28.23
1029.006	40.77
1029.252	155.77
1029.497	77.77
1029.743	51.77
1029.989	-3.23
1030.234	122.77
1030.48	201.77
1030.725	-3.23
1030.971	27.77
1031.216	160.77
1031.462	102.77
1031.708	-45.23
1031.953	-11.23
1032.199	78.77
1032.444	72.77
1032.69	1.77
1032.935	-1.23
1033.181	134.77
1033.426	28.77
1033.672	-116.23
1033.918	-54.23
1034.163	64.77
1034.409	37.77
1034.654	5.77
1034.9	121.77
1035.145	149.77
1035.391	56.77
1035.636	-52.23
1035.882	31.77
1036.127	20.77
1036.373	-24.23
1036.618	-117.23
1036.864	-21.23
1037.109	124.77
1037.355	43.77
1037.6	-35.23
1037.845	-10.23
1038.091	186.77
1038.336	167.77
1038.582	152.77
1038.827	233.77
1039.073	84.77
1039.318	-7.23
1039.564	-94.23
1039.809	-34.23
1040.055	145.77
1040.3	138.77
1040.545	-9.23
1040.791	-28.23
1041.036	39.77
1041.282	82.77
1041.527	142.77
1041.772	-42.23
1042.018	18.77
1042.263	67.77
1042.509	-106.23
1042.754	-67.23
1042.999	63.77
1043.245	40.77
1043.49	-129.23
1043.736	-43.23
1043.981	35.77
1044.226	47.77
1044.472	13.77
1044.717	19.77
1044.962	133.77
1045.208	46.77
1045.453	-173.23
1045.698	-97.23
1045.944	90.77
1046.189	61.77
1046.434	-30.23
1046.68	-28.23
1046.925	136.77
1047.17	13.77
1047.416	-157.23
1047.661	-65.23
1047.906	90.77
1048.152	75.77
1048.397	-33.23
1048.642	-40.23
1048.887	136.77
1049.133	125.77
1049.378	-33.23
1049.623	-42.23
1049.869	88.77
1050.114	10.77
1050.359	-59.23
1050.604	1.77
1050.85	162.77
1051.095	27.77
1051.34	-83.23
1051.585	-14.23
1051.831	167.77
1052.076	34.77
1052.321	-169.23
1052.566	-62.23
1052.812	129.77
1053.057	29.77
1053.302	-52.23
1053.547	48.77
1053.792	102.77
1054.038	85.77
1054.283	-113.23
1054.528	-34.23
1054.773	40.77
1055.018	43.77
1055.264	-62.23
1055.509	-89.23
1055.754	29.77
1055.999	-21.23
1056.244	-98.23
1056.49	-47.23
1056.735	46.77
1056.98	2.77
1057.225	-110.23
1057.47	61.77
1057.715	5.77
1057.96	-68.23
1058.206	-102.23
1058.451	-14.23
1058.696	111.77
1058.941	56.77
1059.186	-120.23
1059.431	-98.23
1059.676	117.77
1059.922	55.77
1060.167	127.77
1060.412	306.77
1060.657	82.77
1060.902	26.77
1061.147	-133.23
1061.392	-51.23
1061.637	78.77
1061.882	-10.23
1062.127	-158.23
1062.373	-130.23
1062.618	138.77
1062.863	160.77
1063.108	-28.23
1063.353	-99.23
1063.598	-0.23
1063.843	-20.23
1064.088	-112.23
1064.333	-111.23
1064.578	42.77
1064.823	61.77
1065.068	-164.23
1065.313	-87.23
1065.558	74.77
1065.803	75.77
1066.048	-128.23
1066.293	-110.23
1066.538	75.77
1066.783	9.77
1067.028	-167.23
1067.273	-133.23
1067.518	49.77
1067.763	-5.23
1068.008	-167.23
1068.253	-106.23
1068.498	77.77
1068.743	2.77
1068.988	-157.23
1069.233	-134.23
1069.478	89.77
1069.723	143.77
1069.968	-61.23
1070.213	-18.23
1070.458	87.77
1070.703	-4.23
1070.948	-178.23
1071.193	-65.23
1071.438	76.77
1071.683	86.77
1071.928	-41.23
1072.173	-57.23
1072.418	18.77
1072.663	-10.23
1072.908	-141.23
1073.152	-78.23
1073.397	86.77
1073.642	-20.23
1073.887	-57.23
1074.132	40.77
1074.377	46.77
1074.622	-6.23
1074.867	-121.23
1075.112	-42.23
1075.357	131.77
1075.601	-11.23
1075.846	-80.23
1076.091	31.77
1076.336	79.77
1076.581	-57.23
1076.826	-156.23
1077.071	-67.23
1077.315	173.77
1077.56	111.77
1077.805	-97.23
1078.05	-50.23
1078.295	-5.23
1078.54	-35.23
1078.785	-162.23
1079.029	-118.23
1079.274	49.77
1079.519	-54.23
1079.764	-157.23
1080.009	-44.23
1080.253	24.77
1080.498	-64.23
1080.743	-203.23
1080.988	-39.23
1081.233	165.77
1081.478	72.77
1081.722	-118.23
1081.967	8.77
1082.212	173.77
1082.457	45.77
1082.701	-109.23
1082.946	-80.23
1083.191	57.77
1083.436	-53.23
1083.681	-187.23
1083.925	-84.23
1084.17	-3.23
1084.415	22.77
1084.66	-183.23
1084.904	-77.23
1085.149	17.77
1085.394	-30.23
1085.639	-198.23
1085.883	-79.23
1086.128	157.77
1086.373	158.77
1086.617	-67.23
1086.862	-130.23
1087.107	-24.23
1087.352	-74.23
1087.596	-140.23
1087.841	-1.23
1088.086	28.77
1088.33	7.77
1088.575	-221.23
1088.82	-103.23
1089.064	71.77
1089.309	-73.23
1089.554	-181.23
1089.798	-149.23
1090.043	37.77
1090.288	-1.23
1090.533	-194.23
1090.777	-104.23
1091.022	45.77
1091.266	41.77
1091.511	-128.23
1091.756	-46.23
1092	110.77
1092.245	90.77
1092.49	-152.23
1092.734	-107.23
1092.979	66.77
1093.224	-20.23
1093.468	-125.23
1093.713	-73.23
1093.957	34.77
1094.202	-34.23
1094.447	-228.23
1094.691	-85.23
1094.936	62.77
1095.181	7.77
1095.425	-158.23
1095.67	-135.23
1095.914	35.77
1096.159	9.77
1096.403	-138.23
1096.648	-44.23
1096.893	61.77
1097.137	-83.23
1097.382	-219.23
1097.626	-151.23
1097.871	19.77
1098.115	-19.23
1098.36	-187.23
1098.605	-101.23
1098.849	-36.23
1099.094	-105.23
1099.338	-198.23
1099.583	-82.23
1099.827	139.77
1100.072	35.77
1100.316	-160.23
1100.561	-97.23
1100.805	59.77
1101.05	23.77
1101.294	-177.23
1101.539	-149.23
1101.783	-3.23
1102.028	7.77
1102.273	-134.23
1102.517	-71.23
1102.761	60.77
1103.006	-55.23
1103.25	-263.23
1103.495	-162.23
1103.739	55.77
1103.984	97.77
1104.228	-113.23
1104.473	-31.23
1104.717	35.77
1104.962	6.77
1105.206	-123.23
1105.451	-152.23
1105.695	17.77
1105.94	-18.23
1106.184	-154.23
1106.429	-85.23
1106.673	26.77
1106.917	71.77
1107.162	-160.23
1107.406	-30.23
1107.651	127.77
1107.895	-73.23
1108.14	-171.23
1108.384	-92.23
1108.628	110.77
1108.873	122.77
1109.117	-133.23
1109.362	-121.23
1109.606	-21.23
1109.85	-24.23
1110.095	-163.23
1110.339	-93.23
1110.584	96.77
1110.828	35.77
1111.072	-93.23
1111.317	-121.23
1111.561	-26.23
1111.806	-18.23
1112.05	-161.23
1112.294	-74.23
1112.539	32.77
1112.783	-0.23
1113.027	-120.23
1113.272	-114.23
1113.516	-15.23
1113.76	-32.23
1114.005	-144.23
1114.249	-73.23
1114.493	71.77
1114.738	98.77
1114.982	-33.23
1115.226	-85.23
1115.471	7.77
1115.715	-26.23
1115.959	-186.23
1116.204	-170.23
1116.448	2.77
1116.692	-94.23
1116.937	-172.23
1117.181	-11.23
1117.425	-17.23
1117.67	-77.23
1117.914	-147.23
1118.158	-92.23
1118.402	131.77
1118.647	53.77
1118.891	-93.23
1119.135	-18.23
1119.38	115.77
1119.624	14.77
1119.868	-138.23
1120.112	-153.23
1120.357	-50.23
1120.601	-91.23
1120.845	-194.23
1121.089	-138.23
1121.334	35.77
