Data from HR4C21111__5__09-40-26-467.txt Node

Date: Mon Feb 22 09:40:26 IST 2021
User: Kapil
Spectrometer: HR4C2111
Trigger mode: 4
Integration Time (sec): 2.300000E0
Scans to average: 1
Electric dark correction enabled: true
Nonlinearity correction enabled: false
Boxcar width: 0
XAxis mode: Wavelengths
Number of Pixels in Spectrum: 3648
>>>>>Begin Spectral Data<<<<<
189.472	-442.38
189.745	-442.38
190.017	-442.38
190.289	-449.38
190.561	-303.38
190.834	-43.38
191.106	-123.38
191.378	16.62
191.65	5.62
191.923	-142.38
192.195	-89.38
192.467	133.62
192.739	115.62
193.011	-31.38
193.284	75.62
193.556	191.62
193.828	-9.38
194.1	-99.38
194.372	-103.38
194.644	68.62
194.916	54.62
195.188	-158.38
195.46	-78.38
195.732	55.62
196.004	-16.38
196.276	-115.38
196.548	-65.38
196.82	71.62
197.092	49.62
197.364	-135.38
197.636	-97.38
197.908	17.62
198.18	-33.38
198.452	-92.38
198.724	-39.38
198.996	61.62
199.268	68.62
199.54	-39.38
199.811	-118.38
200.083	92.62
200.355	3.62
200.627	-205.38
200.899	-78.38
201.171	59.62
201.442	-54.38
201.714	-172.38
201.986	-93.38
202.258	65.62
202.529	118.62
202.801	-3.38
203.073	86.62
203.345	191.62
203.616	3.62
203.888	-138.38
204.16	-130.38
204.431	83.62
204.703	-3.38
204.974	-139.38
205.246	-16.38
205.518	174.62
205.789	4.62
206.061	-116.38
206.332	-98.38
206.604	19.62
206.876	92.62
207.147	123.62
207.419	19.62
207.69	138.62
207.962	-35.38
208.233	-186.38
208.505	0.62
208.776	186.62
209.047	89.62
209.319	-120.38
209.59	-75.38
209.862	147.62
210.133	55.62
210.404	-150.38
210.676	-96.38
210.947	84.62
211.219	60.62
211.49	-124.38
211.761	-42.38
212.033	37.62
212.304	-25.38
212.575	-160.38
212.846	-72.38
213.118	32.62
213.389	-52.38
213.66	-94.38
213.931	-44.38
214.203	23.62
214.474	-41.38
214.745	-126.38
215.016	134.62
215.287	428.62
215.559	55.62
215.83	-110.38
216.101	-44.38
216.372	7.62
216.643	86.62
216.914	25.62
217.185	-69.38
217.456	158.62
217.727	25.62
217.998	-153.38
218.269	-60.38
218.54	28.62
218.811	-9.38
219.082	-86.38
219.353	-61.38
219.624	-9.38
219.895	-26.38
220.166	-124.38
220.437	-106.38
220.708	89.62
220.979	4.62
221.25	-149.38
221.521	-97.38
221.792	38.62
222.063	80.62
222.334	28.62
222.604	157.62
222.875	159.62
223.146	87.62
223.417	-177.38
223.688	-35.38
223.958	123.62
224.229	-51.38
224.5	-192.38
224.771	-63.38
225.041	98.62
225.312	36.62
225.583	-120.38
225.854	-66.38
226.124	96.62
226.395	-6.38
226.666	-124.38
226.936	-91.38
227.207	70.62
227.478	-45.38
227.748	-106.38
228.019	49.62
228.289	247.62
228.56	-27.38
228.831	-39.38
229.101	41.62
229.372	65.62
229.642	-11.38
229.913	-153.38
230.183	-126.38
230.454	6.62
230.724	4.62
230.995	-96.38
231.265	-73.38
231.536	58.62
231.806	35.62
232.076	-114.38
232.347	-117.38
232.617	19.62
232.888	13.62
233.158	-72.38
233.428	-123.38
233.699	-23.38
233.969	-39.38
234.239	-154.38
234.51	-79.38
234.78	49.62
235.05	-16.38
235.321	-121.38
235.591	-80.38
235.861	52.62
236.131	-54.38
236.402	-192.38
236.672	-101.38
236.942	44.62
237.212	38.62
237.483	-57.38
237.753	11.62
238.023	169.62
238.293	28.62
238.563	-70.38
238.833	-88.38
239.103	76.62
239.374	-20.38
239.644	-143.38
239.914	-41.38
240.184	119.62
240.454	-11.38
240.724	-161.38
240.994	-52.38
241.264	35.62
241.534	57.62
241.804	-22.38
242.074	-72.38
242.344	-21.38
242.614	-55.38
242.884	-174.38
243.154	-119.38
243.424	37.62
243.694	72.62
243.964	-93.38
244.234	-71.38
244.503	115.62
244.773	9.62
245.043	-215.38
245.313	-126.38
245.583	119.62
245.853	91.62
246.123	-164.38
246.392	-105.38
246.662	-11.38
246.932	-36.38
247.202	-163.38
247.471	-47.38
247.741	263.62
248.011	100.62
248.281	-144.38
248.55	-85.38
248.82	65.62
249.09	-10.38
249.359	-107.38
249.629	-90.38
249.899	51.62
250.168	54.62
250.438	-37.38
250.708	-99.38
250.977	74.62
251.247	64.62
251.516	-115.38
251.786	-55.38
252.055	123.62
252.325	20.62
252.595	-104.38
252.864	-70.38
253.134	47.62
253.403	-32.38
253.673	-172.38
253.942	-106.38
254.212	45.62
254.481	-3.38
254.75	-141.38
255.02	-78.38
255.289	75.62
255.559	-7.38
255.828	-115.38
256.097	-25.38
256.367	30.62
256.636	-71.38
256.906	-138.38
257.175	-20.38
257.444	243.62
257.714	71.62
257.983	-77.38
258.252	-32.38
258.521	21.62
258.791	37.62
259.06	-105.38
259.329	-39.38
259.598	76.62
259.868	-10.38
260.137	-117.38
260.406	8.62
260.675	92.62
260.944	20.62
261.214	-131.38
261.483	-42.38
261.752	171.62
262.021	24.62
262.29	-152.38
262.559	-104.38
262.828	12.62
263.097	-57.38
263.366	-198.38
263.635	-89.38
263.905	138.62
264.174	26.62
264.443	-201.38
264.712	-108.38
264.981	33.62
265.25	-51.38
265.519	-160.38
265.788	-155.38
266.057	29.62
266.325	59.62
266.594	-58.38
266.863	-106.38
267.132	20.62
267.401	-2.38
267.67	-187.38
267.939	-146.38
268.208	40.62
268.477	68.62
268.745	-132.38
269.014	-97.38
269.283	143.62
269.552	43.62
269.821	-116.38
270.089	-22.38
270.358	-10.38
270.627	-26.38
270.896	-127.38
271.164	-163.38
271.433	7.62
271.702	83.62
271.971	-137.38
272.239	-138.38
272.508	32.62
272.777	-32.38
273.045	-15.38
273.314	-22.38
273.583	101.62
273.851	-4.38
274.12	-158.38
274.388	-136.38
274.657	-2.38
274.926	-13.38
275.194	-152.38
275.463	-61.38
275.731	36.62
276	171.62
276.268	372.62
276.537	-80.38
276.805	21.62
277.074	36.62
277.342	-156.38
277.611	-107.38
277.879	91.62
278.148	28.62
278.416	-134.38
278.684	-103.38
278.953	-22.38
279.221	-30.38
279.49	-186.38
279.758	-99.38
280.026	-10.38
280.295	0.62
280.563	-117.38
280.831	995.62
281.1	2410.62
281.368	218.62
281.636	-90.38
281.904	-110.38
282.173	-4.38
282.441	-59.38
282.709	-91.38
282.977	27.62
283.246	43.62
283.514	-28.38
283.782	-58.38
284.05	13.62
284.318	64.62
284.587	-21.38
284.855	-118.38
285.123	-34.38
285.391	75.62
285.659	45.62
285.927	-151.38
286.195	-76.38
286.463	53.62
286.732	2.62
287	-112.38
287.268	-40.38
287.536	20.62
287.804	-22.38
288.072	-126.38
288.34	-90.38
288.608	70.62
288.876	-33.38
289.144	-128.38
289.412	-20.38
289.68	50.62
289.948	-26.38
290.215	-119.38
290.483	-96.38
290.751	108.62
291.019	100.62
291.287	-166.38
291.555	-119.38
291.823	31.62
292.091	-28.38
292.358	-80.38
292.626	-13.38
292.894	77.62
293.162	47.62
293.43	-95.38
293.697	-70.38
293.965	60.62
294.233	-24.38
294.501	-168.38
294.768	-69.38
295.036	80.62
295.304	42.62
295.572	-130.38
295.839	-98.38
296.107	104.62
296.375	4.62
296.642	-127.38
296.91	-118.38
297.178	58.62
297.445	169.62
297.713	79.62
297.98	-88.38
298.248	-28.38
298.516	-39.38
298.783	-118.38
299.051	-118.38
299.318	5.62
299.586	-36.38
299.853	-97.38
300.121	-75.38
300.388	45.62
300.656	-4.38
300.923	-151.38
301.191	-43.38
301.458	53.62
301.726	-21.38
301.993	-140.38
302.26	-88.38
302.528	40.62
302.795	-11.38
303.063	-74.38
303.33	-41.38
303.597	26.62
303.865	14.62
304.132	-139.38
304.399	-134.38
304.667	-26.38
304.934	12.62
305.201	-120.38
305.469	-22.38
305.736	57.62
306.003	36.62
306.27	-53.38
306.538	-95.38
306.805	3.62
307.072	-20.38
307.339	-90.38
307.606	-44.38
307.874	153.62
308.141	70.62
308.408	-136.38
308.675	-114.38
308.942	-41.38
309.209	-75.38
309.477	-122.38
309.744	-83.38
310.011	22.62
310.278	15.62
310.545	-47.38
310.812	-62.38
311.079	123.62
311.346	196.62
311.613	64.62
311.88	-31.38
312.147	-60.38
312.414	-39.38
312.681	-104.38
312.948	-33.38
313.215	113.62
313.482	69.62
313.749	-96.38
314.016	-190.38
314.283	-52.38
314.55	48.62
314.817	-98.38
315.083	-123.38
315.35	-78.38
315.617	-123.38
315.884	-123.38
316.151	64.62
316.418	165.62
316.684	-11.38
316.951	-186.38
317.218	-110.38
317.485	13.62
317.752	-54.38
318.018	-120.38
318.285	3.62
318.552	39.62
318.819	-61.38
319.085	-137.38
319.352	-55.38
319.619	43.62
319.885	-25.38
320.152	-185.38
320.419	-82.38
320.685	48.62
320.952	-23.38
321.219	-66.38
321.485	70.62
321.752	26.62
322.019	-44.38
322.285	26.62
322.552	-10.38
322.818	101.62
323.085	-24.38
323.351	-126.38
323.618	-21.38
323.884	44.62
324.151	-76.38
324.417	-35.38
324.684	-61.38
324.95	-43.38
325.217	-137.38
325.483	-179.38
325.75	-36.38
326.016	6.62
326.283	-26.38
326.549	-183.38
326.815	-67.38
327.082	96.62
327.348	5.62
327.615	-108.38
327.881	-18.38
328.147	132.62
328.414	127.62
328.68	5.62
328.946	-40.38
329.212	32.62
329.479	-12.38
329.745	-108.38
330.011	-101.38
330.278	10.62
330.544	-53.38
330.81	-30.38
331.076	-26.38
331.342	-31.38
331.609	-28.38
331.875	-82.38
332.141	-91.38
332.407	18.62
332.673	-14.38
332.94	-35.38
333.206	-42.38
333.472	48.62
333.738	63.62
334.004	-112.38
334.27	-14.38
334.536	9.62
334.802	-33.38
335.068	-82.38
335.334	9.62
335.6	35.62
335.866	-14.38
336.132	-155.38
336.398	-76.38
336.664	-5.38
336.93	-28.38
337.196	-85.38
337.462	-18.38
337.728	24.62
337.994	-23.38
338.26	-88.38
338.526	-24.38
338.792	-43.38
339.058	-37.38
339.324	-142.38
339.59	-21.38
339.856	48.62
340.121	-52.38
340.387	-118.38
340.653	84.62
340.919	153.62
341.185	40.62
341.45	-83.38
341.716	23.62
341.982	113.62
342.248	-54.38
342.514	-75.38
342.779	11.62
343.045	36.62
343.311	-7.38
343.576	-76.38
343.842	-42.38
344.108	122.62
344.374	24.62
344.639	-115.38
344.905	-98.38
345.171	41.62
345.436	-57.38
345.702	-95.38
345.967	52.62
346.233	79.62
346.499	14.62
346.764	-165.38
347.03	-63.38
347.295	-31.38
347.561	-2.38
347.826	-47.38
348.092	-126.38
348.357	-11.38
348.623	-14.38
348.888	-112.38
349.154	-67.38
349.419	56.62
349.685	8.62
349.95	-67.38
350.216	-45.38
350.481	55.62
350.747	-38.38
351.012	-164.38
351.277	-96.38
351.543	46.62
351.808	0.62
352.074	-153.38
352.339	-106.38
352.604	66.62
352.87	30.62
353.135	-113.38
353.4	-68.38
353.666	9.62
353.931	0.62
354.196	-130.38
354.461	-116.38
354.727	43.62
354.992	18.62
355.257	-134.38
355.522	-29.38
355.788	17.62
356.053	73.62
356.318	-79.38
356.583	-75.38
356.848	118.62
357.113	223.62
357.379	-41.38
357.644	-55.38
357.909	137.62
358.174	142.62
358.439	-108.38
358.704	-28.38
358.969	89.62
359.234	93.62
359.499	-73.38
359.765	1.62
360.03	108.62
360.295	112.62
360.56	-54.38
360.825	8.62
361.09	212.62
361.355	35.62
361.62	-3.38
361.885	38.62
362.15	26.62
362.415	38.62
362.679	-15.38
362.944	141.62
363.209	148.62
363.474	153.62
363.739	93.62
364.004	23.62
364.269	94.62
364.534	141.62
364.799	95.62
365.063	89.62
365.328	198.62
365.593	205.62
365.858	84.62
366.123	90.62
366.387	220.62
366.652	155.62
366.917	56.62
367.182	132.62
367.447	271.62
367.711	200.62
367.976	146.62
368.241	237.62
368.505	296.62
368.77	198.62
369.035	178.62
369.299	237.62
369.564	270.62
369.829	219.62
370.093	179.62
370.358	172.62
370.623	279.62
370.887	312.62
371.152	178.62
371.416	260.62
371.681	309.62
371.946	239.62
372.21	204.62
372.475	330.62
372.739	374.62
373.004	325.62
373.268	307.62
373.533	370.62
373.797	435.62
374.062	429.62
374.326	285.62
374.591	367.62
374.855	458.62
375.12	403.62
375.384	246.62
375.648	344.62
375.913	503.62
376.177	515.62
376.442	394.62
376.706	423.62
376.97	576.62
377.235	532.62
377.499	498.62
377.763	525.62
378.028	524.62
378.292	576.62
378.556	509.62
378.821	465.62
379.085	546.62
379.349	506.62
379.614	473.62
379.878	602.62
380.142	773.62
380.406	711.62
380.671	717.62
380.935	853.62
381.199	958.62
381.463	845.62
381.727	802.62
381.991	785.62
382.256	883.62
382.52	837.62
382.784	858.62
383.048	991.62
383.312	914.62
383.576	892.62
383.84	849.62
384.104	933.62
384.369	1002.62
384.633	908.62
384.897	852.62
385.161	1005.62
385.425	1114.62
385.689	1049.62
385.953	1039.62
386.217	1046.62
386.481	1148.62
386.745	1194.62
387.009	1149.62
387.273	1127.62
387.537	1199.62
387.801	1229.62
388.064	1192.62
388.328	1281.62
388.592	1347.62
388.856	1319.62
389.12	1265.62
389.384	1338.62
389.648	1404.62
389.912	1488.62
390.176	1498.62
390.439	1614.62
390.703	1437.62
390.967	1423.62
391.231	1356.62
391.495	1456.62
391.758	1564.62
392.022	1583.62
392.286	1469.62
392.55	1527.62
392.813	1642.62
393.077	1682.62
393.341	1636.62
393.605	1737.62
393.868	1713.62
394.132	1698.62
394.396	1655.62
394.659	1813.62
394.923	1786.62
395.187	1742.62
395.45	1747.62
395.714	1818.62
395.978	1850.62
396.241	1878.62
396.505	1837.62
396.768	1914.62
397.032	2007.62
397.295	2013.62
397.559	1929.62
397.823	1905.62
398.086	2079.62
398.35	2024.62
398.613	1930.62
398.877	2049.62
399.14	2194.62
399.404	2235.62
399.667	2166.62
399.931	2126.62
400.194	2243.62
400.457	2219.62
400.721	2209.62
400.984	2326.62
401.248	2288.62
401.511	2293.62
401.775	2169.62
402.038	2234.62
402.301	2467.62
402.565	2429.62
402.828	2224.62
403.091	2339.62
403.355	2487.62
403.618	2485.62
403.881	2490.62
404.145	2544.62
404.408	2592.62
404.671	2529.62
404.934	2595.62
405.198	2640.62
405.461	2661.62
405.724	2696.62
405.987	2651.62
406.251	2730.62
406.514	2872.62
406.777	2743.62
407.04	2643.62
407.303	2652.62
407.567	2771.62
407.83	2864.62
408.093	2687.62
408.356	2824.62
408.619	2927.62
408.882	3001.62
409.145	2926.62
409.408	2888.62
409.672	2968.62
409.935	2907.62
410.198	2836.62
410.461	2911.62
410.724	3146.62
410.987	3075.62
411.25	2869.62
411.513	3023.62
411.776	3124.62
412.039	2995.62
412.302	2962.62
412.565	3049.62
412.828	3058.62
413.091	3060.62
413.354	2974.62
413.617	2963.62
413.879	3033.62
414.142	3035.62
414.405	2900.62
414.668	2973.62
414.931	3107.62
415.194	3066.62
415.457	2948.62
415.72	3029.62
415.983	3057.62
416.245	3081.62
416.508	2968.62
416.771	2897.62
417.034	3050.62
417.297	3065.62
417.559	3009.62
417.822	2993.62
418.085	3076.62
418.348	3044.62
418.61	2932.62
418.873	2918.62
419.136	2994.62
419.399	2953.62
419.661	2997.62
419.924	2921.62
420.187	3029.62
420.449	3065.62
420.712	3040.62
420.975	3024.62
421.237	3082.62
421.5	3106.62
421.762	3174.62
422.025	3181.62
422.288	3240.62
422.55	3066.62
422.813	2988.62
423.075	3138.62
423.338	3232.62
423.601	3279.62
423.863	3219.62
424.126	3267.62
424.388	3350.62
424.651	3334.62
424.913	3287.62
425.176	3294.62
425.438	3284.62
425.701	3277.62
425.963	3169.62
426.225	3246.62
426.488	3309.62
426.75	3279.62
427.013	3288.62
427.275	3390.62
427.538	3405.62
427.8	3405.62
428.062	3320.62
428.325	3361.62
428.587	3460.62
428.849	3430.62
429.112	3429.62
429.374	3407.62
429.636	3430.62
429.899	3565.62
430.161	3419.62
430.423	3487.62
430.686	3624.62
430.948	3616.62
431.21	3410.62
431.472	3387.62
431.735	3565.62
431.997	3564.62
432.259	3547.62
432.521	3497.62
432.783	3580.62
433.046	3550.62
433.308	3468.62
433.57	3525.62
433.832	3755.62
434.094	3572.62
434.356	3403.62
434.618	3576.62
434.881	3693.62
435.143	3726.62
435.405	3683.62
435.667	3651.62
435.929	3691.62
436.191	3671.62
436.453	3589.62
436.715	3720.62
436.977	3860.62
437.239	3888.62
437.501	3794.62
437.763	3784.62
438.025	3858.62
438.287	3820.62
438.549	3727.62
438.811	3690.62
439.073	3796.62
439.335	3856.62
439.597	3802.62
439.859	3774.62
440.121	3916.62
440.383	3792.62
440.645	3757.62
440.907	3851.62
441.168	3871.62
441.43	3832.62
441.692	3809.62
441.954	3880.62
442.216	3971.62
442.478	3920.62
442.74	3749.62
443.001	3891.62
443.263	4028.62
443.525	3859.62
443.787	3756.62
444.048	3754.62
444.31	3823.62
444.572	3861.62
444.834	3873.62
445.095	3881.62
445.357	4016.62
445.619	3835.62
445.881	3712.62
446.142	3811.62
446.404	3822.62
446.666	3823.62
446.927	3825.62
447.189	4005.62
447.451	4026.62
447.712	3873.62
447.974	3723.62
448.235	3766.62
448.497	3844.62
448.759	3797.62
449.02	3836.62
449.282	3779.62
449.543	3888.62
449.805	3947.62
450.066	3724.62
450.328	3825.62
450.59	4047.62
450.851	3910.62
451.113	3773.62
451.374	3728.62
451.636	3986.62
451.897	3990.62
452.158	3846.62
452.42	3930.62
452.681	3977.62
452.943	3796.62
453.204	3834.62
453.466	3844.62
453.727	3848.62
453.988	3895.62
454.25	3812.62
454.511	3867.62
454.773	3896.62
455.034	4031.62
455.295	3812.62
455.557	3949.62
455.818	3976.62
456.079	3923.62
456.341	4024.62
456.602	4092.62
456.863	4146.62
457.124	3975.62
457.386	3822.62
457.647	3826.62
457.908	3906.62
458.169	4043.62
458.431	3890.62
458.692	3958.62
458.953	3999.62
459.214	3983.62
459.476	4105.62
459.737	4293.62
459.998	4285.62
460.259	4120.62
460.52	4089.62
460.781	4199.62
461.043	4370.62
461.304	4270.62
461.565	4149.62
461.826	4185.62
462.087	4304.62
462.348	4466.62
462.609	4391.62
462.87	4357.62
463.131	4330.62
463.392	4553.62
463.653	4570.62
463.914	4551.62
464.175	4495.62
464.436	4534.62
464.697	4576.62
464.958	4443.62
465.219	4484.62
465.48	4586.62
465.741	4616.62
466.002	4480.62
466.263	4705.62
466.524	4745.62
466.785	4597.62
467.046	4682.62
467.307	4839.62
467.568	4920.62
467.829	4886.62
468.089	4888.62
468.35	4948.62
468.611	4842.62
468.872	4755.62
469.133	4988.62
469.394	5171.62
469.655	5233.62
469.915	5095.62
470.176	4977.62
470.437	5058.62
470.698	5204.62
470.958	5264.62
471.219	5254.62
471.48	5359.62
471.741	5523.62
472.001	5493.62
472.262	5494.62
472.523	5682.62
472.784	5793.62
473.044	5679.62
473.305	5727.62
473.566	5762.62
473.826	5822.62
474.087	5774.62
474.348	5821.62
474.608	6033.62
474.869	6034.62
475.129	5905.62
475.39	5956.62
475.651	6135.62
475.911	6312.62
476.172	6189.62
476.432	6287.62
476.693	6530.62
476.953	6415.62
477.214	6447.62
477.475	6518.62
477.735	6491.62
477.996	6614.62
478.256	6505.62
478.517	6616.62
478.777	6766.62
479.038	6947.62
479.298	6948.62
479.558	6962.62
479.819	7121.62
480.079	7124.62
480.34	7142.62
480.6	7167.62
480.861	7251.62
481.121	7261.62
481.381	7234.62
481.642	7329.62
481.902	7371.62
482.162	7383.62
482.423	7336.62
482.683	7490.62
482.943	7638.62
483.204	7606.62
483.464	7570.62
483.724	7627.62
483.985	7688.62
484.245	7800.62
484.505	7766.62
484.765	7860.62
485.026	7954.62
485.286	8025.62
485.546	7985.62
485.806	8014.62
486.067	8051.62
486.327	8024.62
486.587	8036.62
486.847	8084.62
487.107	8220.62
487.368	8288.62
487.628	8177.62
487.888	8203.62
488.148	8381.62
488.408	8260.62
488.668	8348.62
488.928	8352.62
489.188	8369.62
489.449	8499.62
489.709	8359.62
489.969	8395.62
490.229	8553.62
490.489	8531.62
490.749	8456.62
491.009	8360.62
491.269	8501.62
491.529	8515.62
491.789	8501.62
492.049	8554.62
492.309	8720.62
492.569	8634.62
492.829	8616.62
493.089	8570.62
493.349	8735.62
493.609	8682.62
493.869	8570.62
494.129	8678.62
494.389	8782.62
494.648	8664.62
494.908	8583.62
495.168	8689.62
495.428	8812.62
495.688	8791.62
495.948	8609.62
496.208	8655.62
496.467	8752.62
496.727	8771.62
496.987	8768.62
497.247	8778.62
497.507	8816.62
497.767	8885.62
498.026	8687.62
498.286	8774.62
498.546	8992.62
498.806	8853.62
499.065	8898.62
499.325	8831.62
499.585	8835.62
499.845	8796.62
500.104	8827.62
500.364	8873.62
500.624	8872.62
500.883	8789.62
501.143	8864.62
501.403	8935.62
501.662	8947.62
501.922	8883.62
502.182	8747.62
502.441	8761.62
502.701	8831.62
502.96	8915.62
503.22	8877.62
503.48	8846.62
503.739	8914.62
503.999	8858.62
504.258	8765.62
504.518	8858.62
504.777	8947.62
505.037	8871.62
505.296	8817.62
505.556	8824.62
505.815	8936.62
506.075	9037.62
506.334	8957.62
506.594	8733.62
506.853	8783.62
507.113	8824.62
507.372	8702.62
507.632	8778.62
507.891	8851.62
508.151	8957.62
508.41	8801.62
508.669	8819.62
508.929	8854.62
509.188	8851.62
509.447	8838.62
509.707	8754.62
509.966	8861.62
510.226	8908.62
510.485	8834.62
510.744	8900.62
511.004	8958.62
511.263	8891.62
511.522	8726.62
511.781	8707.62
512.041	8886.62
512.3	8896.62
512.559	8902.62
512.818	8936.62
513.078	8902.62
513.337	8843.62
513.596	8804.62
513.855	8850.62
514.115	8900.62
514.374	8912.62
514.633	8842.62
514.892	8775.62
515.151	8887.62
515.41	8923.62
515.67	8811.62
515.929	8792.62
516.188	8983.62
516.447	8939.62
516.706	8847.62
516.965	8912.62
517.224	8962.62
517.483	8910.62
517.743	8848.62
518.002	8917.62
518.261	8966.62
518.52	8973.62
518.779	8866.62
519.038	8891.62
519.297	8937.62
519.556	8969.62
519.815	8910.62
520.074	8861.62
520.333	8978.62
520.592	8988.62
520.851	8875.62
521.11	8984.62
521.369	9094.62
521.628	8918.62
521.887	8790.62
522.145	8886.62
522.404	8936.62
522.663	8922.62
522.922	8832.62
523.181	8823.62
523.44	8968.62
523.699	8971.62
523.958	8812.62
524.217	8822.62
524.475	8817.62
524.734	8767.62
524.993	8794.62
525.252	8863.62
525.511	8901.62
525.769	8836.62
526.028	8761.62
526.287	8815.62
526.546	8852.62
526.805	8799.62
527.063	8727.62
527.322	8759.62
527.581	8843.62
527.839	8819.62
528.098	8803.62
528.357	8817.62
528.616	8811.62
528.874	8785.62
529.133	8767.62
529.392	8823.62
529.65	8817.62
529.909	8731.62
530.168	8683.62
530.426	8682.62
530.685	8817.62
530.943	8800.62
531.202	8675.62
531.461	8723.62
531.719	8914.62
531.978	8800.62
532.236	8631.62
532.495	8765.62
532.753	8843.62
533.012	8819.62
533.271	8779.62
533.529	8708.62
533.788	8721.62
534.046	8678.62
534.305	8635.62
534.563	8832.62
534.822	8938.62
535.08	8876.62
535.338	8761.62
535.597	8774.62
535.855	8842.62
536.114	8737.62
536.372	8695.62
536.631	8759.62
536.889	8873.62
537.147	8837.62
537.406	8648.62
537.664	8802.62
537.923	8849.62
538.181	8819.62
538.439	8695.62
538.698	8859.62
538.956	8859.62
539.214	8829.62
539.473	8771.62
539.731	8808.62
539.989	8985.62
540.248	8871.62
540.506	8866.62
540.764	8894.62
541.022	8933.62
541.281	8989.62
541.539	8895.62
541.797	8909.62
542.055	9009.62
542.314	9092.62
542.572	9103.62
542.83	8977.62
543.088	9139.62
543.346	9096.62
543.604	8984.62
543.863	9105.62
544.121	9216.62
544.379	9161.62
544.637	9126.62
544.895	9318.62
545.153	9427.62
545.411	9271.62
545.67	9152.62
545.928	9218.62
546.186	9332.62
546.444	9383.62
546.702	9357.62
546.96	9385.62
547.218	9422.62
547.476	9405.62
547.734	9383.62
547.992	9448.62
548.25	9641.62
548.508	9513.62
548.766	9449.62
549.024	9541.62
549.282	9606.62
549.54	9692.62
549.798	9717.62
550.056	9743.62
550.314	9824.62
550.572	9794.62
550.83	9705.62
551.088	9858.62
551.346	9987.62
551.603	9983.62
551.861	9878.62
552.119	9923.62
552.377	10020.62
552.635	9944.62
552.893	9908.62
553.151	9976.62
553.409	10119.62
553.666	10146.62
553.924	10117.62
554.182	10140.62
554.44	10264.62
554.698	10357.62
554.955	10240.62
555.213	10270.62
555.471	10458.62
555.729	10367.62
555.986	10248.62
556.244	10318.62
556.502	10518.62
556.76	10444.62
557.017	10395.62
557.275	10424.62
557.533	10613.62
557.79	10581.62
558.048	10433.62
558.306	10585.62
558.563	10649.62
558.821	10573.62
559.079	10465.62
559.336	10562.62
559.594	10633.62
559.852	10560.62
560.109	10527.62
560.367	10668.62
560.624	10727.62
560.882	10700.62
561.14	10655.62
561.397	10818.62
561.655	10752.62
561.912	10787.62
562.17	10691.62
562.427	10717.62
562.685	10800.62
562.942	10780.62
563.2	10754.62
563.457	10794.62
563.715	10829.62
563.972	10885.62
564.23	10694.62
564.487	10653.62
564.745	10712.62
565.002	10821.62
565.26	10776.62
565.517	10706.62
565.774	10772.62
566.032	10839.62
566.289	10764.62
566.547	10723.62
566.804	10824.62
567.061	10756.62
567.319	10667.62
567.576	10749.62
567.833	10808.62
568.091	10833.62
568.348	10745.62
568.605	10776.62
568.863	10812.62
569.12	10805.62
569.377	10717.62
569.635	10639.62
569.892	10679.62
570.149	10587.62
570.406	10476.62
570.664	10575.62
570.921	10709.62
571.178	10586.62
571.435	10558.62
571.693	10523.62
571.95	10533.62
572.207	10471.62
572.464	10395.62
572.721	10445.62
572.979	10442.62
573.236	10410.62
573.493	10356.62
573.75	10325.62
574.007	10439.62
574.264	10319.62
574.521	10174.62
574.779	10160.62
575.036	10216.62
575.293	10141.62
575.55	10052.62
575.807	10065.62
576.064	10078.62
576.321	10086.62
576.578	9935.62
576.835	9894.62
577.092	9982.62
577.349	9837.62
577.606	9647.62
577.863	9673.62
578.12	9721.62
578.377	9652.62
578.634	9422.62
578.891	9517.62
579.148	9645.62
579.405	9516.62
579.662	9382.62
579.919	9410.62
580.176	9371.62
580.433	9242.62
580.69	9134.62
580.947	9164.62
581.204	9187.62
581.461	9035.62
581.717	8949.62
581.974	9059.62
582.231	9068.62
582.488	8920.62
582.745	8697.62
583.002	8718.62
583.259	8848.62
583.515	8773.62
583.772	8633.62
584.029	8666.62
584.286	8733.62
584.543	8459.62
584.799	8457.62
585.056	8515.62
585.313	8509.62
585.57	8391.62
585.826	8226.62
586.083	8359.62
586.34	8474.62
586.597	8217.62
586.853	8036.62
587.11	8037.62
587.367	8166.62
587.623	8116.62
587.88	7955.62
588.137	7839.62
588.393	7982.62
588.65	7897.62
588.907	7697.62
589.163	7739.62
589.42	7741.62
589.677	7689.62
589.933	7661.62
590.19	7692.62
590.446	7777.62
590.703	7750.62
590.96	7480.62
591.216	7378.62
591.473	7498.62
591.729	7552.62
591.986	7487.62
592.242	7503.62
592.499	7700.62
592.755	7509.62
593.012	7319.62
593.268	7340.62
593.525	7334.62
593.781	7329.62
594.038	7204.62
594.294	7239.62
594.551	7259.62
594.807	7237.62
595.064	7171.62
595.32	7165.62
595.576	7272.62
595.833	7293.62
596.089	7107.62
596.346	7195.62
596.602	7250.62
596.858	7249.62
597.115	7088.62
597.371	7173.62
597.628	7188.62
597.884	7138.62
598.14	7006.62
598.397	7193.62
598.653	7231.62
598.909	7075.62
599.166	6938.62
599.422	6982.62
599.678	7078.62
599.934	7046.62
600.191	6922.62
600.447	6954.62
600.703	7064.62
600.959	7042.62
601.216	6825.62
601.472	6817.62
601.728	6935.62
601.984	6921.62
602.241	6857.62
602.497	6908.62
602.753	6986.62
603.009	6909.62
603.265	6847.62
603.521	6960.62
603.778	7030.62
604.034	6914.62
604.29	6792.62
604.546	6865.62
604.802	6949.62
605.058	6837.62
605.314	6784.62
605.571	6836.62
605.827	6829.62
606.083	6833.62
606.339	6753.62
606.595	6802.62
606.851	6916.62
607.107	7020.62
607.363	6824.62
607.619	6777.62
607.875	6927.62
608.131	6897.62
608.387	6665.62
608.643	6658.62
608.899	6761.62
609.155	6743.62
609.411	6715.62
609.667	6773.62
609.923	6735.62
610.179	6723.62
610.435	6564.62
610.691	6620.62
610.947	6788.62
611.203	6696.62
611.459	6602.62
611.714	6638.62
611.97	6762.62
612.226	6717.62
612.482	6543.62
612.738	6677.62
612.994	6865.62
613.25	6639.62
613.505	6473.62
613.761	6546.62
614.017	6684.62
614.273	6624.62
614.529	6548.62
614.785	6502.62
615.04	6573.62
615.296	6550.62
615.552	6489.62
615.808	6491.62
616.063	6504.62
616.319	6551.62
616.575	6413.62
616.831	6424.62
617.086	6611.62
617.342	6571.62
617.598	6465.62
617.854	6467.62
618.109	6475.62
618.365	6364.62
618.621	6272.62
618.876	6360.62
619.132	6492.62
619.388	6415.62
619.643	6221.62
619.899	6372.62
620.155	6397.62
620.41	6316.62
620.666	6191.62
620.921	6224.62
621.177	6355.62
621.433	6393.62
621.688	6257.62
621.944	6179.62
622.199	6213.62
622.455	6202.62
622.71	6045.62
622.966	6104.62
623.221	6084.62
623.477	6099.62
623.732	6095.62
623.988	6005.62
624.243	6103.62
624.499	6111.62
624.754	5899.62
625.01	5991.62
625.265	6092.62
625.521	6104.62
625.776	5947.62
626.032	5992.62
626.287	6086.62
626.543	5961.62
626.798	5860.62
627.053	5854.62
627.309	5860.62
627.564	5777.62
627.82	5805.62
628.075	5887.62
628.33	5835.62
628.586	5687.62
628.841	5611.62
629.096	5731.62
629.352	5827.62
629.607	5712.62
629.862	5629.62
630.118	5671.62
630.373	5726.62
630.628	5778.62
630.884	5541.62
631.139	5542.62
631.394	5671.62
631.649	5642.62
631.905	5478.62
632.16	5551.62
632.415	5745.62
632.67	5566.62
632.926	5372.62
633.181	5374.62
633.436	5546.62
633.691	5427.62
633.946	5309.62
634.202	5340.62
634.457	5423.62
634.712	5330.62
634.967	5264.62
635.222	5193.62
635.477	5323.62
635.733	5332.62
635.988	5208.62
636.243	5201.62
636.498	5347.62
636.753	5287.62
637.008	5136.62
637.263	5208.62
637.518	5233.62
637.773	5131.62
638.028	5052.62
638.283	5121.62
638.539	5201.62
638.794	5128.62
639.049	5029.62
639.304	4987.62
639.559	5038.62
639.814	5060.62
640.069	4916.62
640.324	4890.62
640.579	5031.62
640.834	4977.62
641.089	4869.62
641.344	4915.62
641.598	5110.62
641.853	4959.62
642.108	4730.62
642.363	4726.62
642.618	4934.62
642.873	4831.62
643.128	4660.62
643.383	4698.62
643.638	4770.62
643.893	4859.62
644.148	4804.62
644.402	4694.62
644.657	4764.62
644.912	4641.62
645.167	4645.62
645.422	4727.62
645.677	4682.62
645.931	4668.62
646.186	4668.62
646.441	4581.62
646.696	4584.62
646.951	4640.62
647.205	4586.62
647.46	4508.62
647.715	4560.62
647.97	4725.62
648.224	4799.62
648.479	4617.62
648.734	4742.62
648.989	4696.62
649.243	4534.62
649.498	4472.62
649.753	4472.62
650.007	4550.62
650.262	4445.62
650.517	4421.62
650.771	4463.62
651.026	4412.62
651.281	4315.62
651.535	4452.62
651.79	4487.62
652.045	4444.62
652.299	4337.62
652.554	4310.62
652.809	4397.62
653.063	4569.62
653.318	4474.62
653.572	4336.62
653.827	4380.62
654.081	4359.62
654.336	4264.62
654.591	4263.62
654.845	4338.62
655.1	4303.62
655.354	4242.62
655.609	4308.62
655.863	4416.62
656.118	4368.62
656.372	4191.62
656.627	4216.62
656.881	4323.62
657.136	4248.62
657.39	4119.62
657.645	4297.62
657.899	4452.62
658.153	4303.62
658.408	4184.62
658.662	4270.62
658.917	4291.62
659.171	4184.62
659.426	4102.62
659.68	4149.62
659.934	4225.62
660.189	4217.62
660.443	4137.62
660.697	4275.62
660.952	4347.62
661.206	4199.62
661.46	4038.62
661.715	4145.62
661.969	4290.62
662.223	4262.62
662.478	4155.62
662.732	4200.62
662.986	4249.62
663.241	4251.62
663.495	4144.62
663.749	4168.62
664.003	4295.62
664.258	4224.62
664.512	4177.62
664.766	4205.62
665.02	4256.62
665.275	4297.62
665.529	4112.62
665.783	4155.62
666.037	4245.62
666.291	4255.62
666.546	4142.62
666.8	4170.62
667.054	4228.62
667.308	4241.62
667.562	4032.62
667.816	4176.62
668.071	4300.62
668.325	4178.62
668.579	4187.62
668.833	4243.62
669.087	4383.62
669.341	4293.62
669.595	4182.62
669.849	4227.62
670.103	4292.62
670.357	4310.62
670.612	4229.62
670.866	4219.62
671.12	4325.62
671.374	4307.62
671.628	4226.62
671.882	4215.62
672.136	4324.62
672.39	4354.62
672.644	4165.62
672.898	4327.62
673.152	4503.62
673.406	4372.62
673.66	4255.62
673.914	4365.62
674.168	4419.62
674.422	4370.62
674.675	4291.62
674.929	4355.62
675.183	4457.62
675.437	4399.62
675.691	4352.62
675.945	4485.62
676.199	4576.62
676.453	4429.62
676.707	4297.62
676.961	4328.62
677.214	4434.62
677.468	4472.62
677.722	4469.62
677.976	4417.62
678.23	4507.62
678.484	4502.62
678.737	4368.62
678.991	4446.62
679.245	4553.62
679.499	4508.62
679.753	4417.62
680.006	4506.62
680.26	4628.62
680.514	4623.62
680.768	4451.62
681.021	4533.62
681.275	4614.62
681.529	4568.62
681.783	4516.62
682.036	4541.62
682.29	4536.62
682.544	4607.62
682.797	4529.62
683.051	4534.62
683.305	4647.62
683.559	4629.62
683.812	4631.62
684.066	4613.62
684.32	4686.62
684.573	4681.62
684.827	4699.62
685.08	4695.62
685.334	4795.62
685.588	4731.62
685.841	4596.62
686.095	4729.62
686.348	4743.62
686.602	4770.62
686.856	4730.62
687.109	4659.62
687.363	4759.62
687.616	4715.62
687.87	4573.62
688.123	4653.62
688.377	4739.62
688.63	4746.62
688.884	4700.62
689.137	4841.62
689.391	4919.62
689.644	4757.62
689.898	4696.62
690.151	4740.62
690.405	4871.62
690.658	4801.62
690.912	4744.62
691.165	4754.62
691.419	4856.62
691.672	4864.62
691.926	4729.62
692.179	4742.62
692.432	4816.62
692.686	4786.62
692.939	4660.62
693.193	4743.62
693.446	4880.62
693.699	4868.62
693.953	4874.62
694.206	4859.62
694.459	4962.62
694.713	4980.62
694.966	4812.62
695.219	4811.62
695.473	4925.62
695.726	4794.62
695.979	4788.62
696.233	4903.62
696.486	4929.62
696.739	4844.62
696.992	4763.62
697.246	4905.62
697.499	5019.62
697.752	4858.62
698.006	4814.62
698.259	4893.62
698.512	4909.62
698.765	4872.62
699.018	4793.62
699.272	4846.62
699.525	4896.62
699.778	4807.62
700.031	4772.62
700.284	4781.62
700.538	4881.62
700.791	4877.62
701.044	4867.62
701.297	4872.62
701.55	4849.62
701.803	4801.62
702.056	4685.62
702.31	4780.62
702.563	4889.62
702.816	4819.62
703.069	4709.62
703.322	4781.62
703.575	4876.62
703.828	4901.62
704.081	4782.62
704.334	4759.62
704.587	4782.62
704.84	4728.62
705.093	4755.62
705.346	4869.62
705.599	4826.62
705.853	4826.62
706.106	4881.62
706.359	5101.62
706.612	4849.62
706.865	4881.62
707.118	4725.62
707.37	4834.62
707.623	4922.62
707.876	4838.62
708.129	4751.62
708.382	4848.62
708.635	4930.62
708.888	4811.62
709.141	4640.62
709.394	4767.62
709.647	4849.62
709.9	4755.62
710.153	4606.62
710.406	4716.62
710.658	4827.62
710.911	4763.62
711.164	4622.62
711.417	4631.62
711.67	4683.62
711.923	4722.62
712.176	4630.62
712.428	4651.62
712.681	4740.62
712.934	4707.62
713.187	4582.62
713.44	4545.62
713.692	4668.62
713.945	4572.62
714.198	4518.62
714.451	4499.62
714.704	4649.62
714.956	4669.62
715.209	4688.62
715.462	4605.62
715.715	4627.62
715.967	4630.62
716.22	4434.62
716.473	4479.62
716.725	4626.62
716.978	4556.62
717.231	4550.62
717.484	4621.62
717.736	4525.62
717.989	4450.62
718.242	4361.62
718.494	4429.62
718.747	4549.62
718.999	4495.62
719.252	4531.62
719.505	4496.62
719.757	4499.62
720.01	4436.62
720.263	4358.62
720.515	4396.62
720.768	4532.62
721.02	4503.62
721.273	4330.62
721.525	4288.62
721.778	4404.62
722.031	4445.62
722.283	4253.62
722.536	4281.62
722.788	4390.62
723.041	4298.62
723.293	4206.62
723.546	4193.62
723.798	4293.62
724.051	4350.62
724.303	4303.62
724.556	4276.62
724.808	4401.62
725.061	4334.62
725.313	4201.62
725.566	4187.62
725.818	4217.62
726.071	4232.62
726.323	4054.62
726.575	4076.62
726.828	4217.62
727.08	4220.62
727.333	4116.62
727.585	4097.62
727.837	4161.62
728.09	4164.62
728.342	4020.62
728.595	4085.62
728.847	4258.62
729.099	4050.62
729.352	4010.62
729.604	3967.62
729.856	4076.62
730.109	4068.62
730.361	3924.62
730.613	4074.62
730.866	4151.62
731.118	3982.62
731.37	3935.62
731.622	3926.62
731.875	3971.62
732.127	4016.62
732.379	3976.62
732.631	4031.62
732.884	4025.62
733.136	3944.62
733.388	3823.62
733.64	3885.62
733.893	4023.62
734.145	3908.62
734.397	3771.62
734.649	3744.62
734.901	3818.62
735.154	3745.62
735.406	3683.62
735.658	3738.62
735.91	3830.62
736.162	3808.62
736.414	3693.62
736.667	3755.62
736.919	3793.62
737.171	3703.62
737.423	3648.62
737.675	3690.62
737.927	3755.62
738.179	3695.62
738.431	3617.62
738.684	3583.62
738.936	3681.62
739.188	3728.62
739.44	3550.62
739.692	3587.62
739.944	3620.62
740.196	3592.62
740.448	3504.62
740.7	3539.62
740.952	3550.62
741.204	3543.62
741.456	3490.62
741.708	3562.62
741.96	3516.62
742.212	3595.62
742.464	3563.62
742.716	3431.62
742.968	3527.62
743.22	3465.62
743.472	3353.62
743.724	3457.62
743.976	3596.62
744.228	3578.62
744.48	3353.62
744.732	3389.62
744.983	3512.62
745.235	3465.62
745.487	3432.62
745.739	3464.62
745.991	3425.62
746.243	3501.62
746.495	3354.62
746.747	3347.62
746.999	3456.62
747.25	3425.62
747.502	3388.62
747.754	3432.62
748.006	3393.62
748.258	3503.62
748.51	3484.62
748.761	3368.62
749.013	3441.62
749.265	3520.62
749.517	3455.62
749.768	3476.62
750.02	3453.62
750.272	3364.62
750.524	3240.62
750.776	3231.62
751.027	3410.62
751.279	3412.62
751.531	3200.62
751.782	3282.62
752.034	3384.62
752.286	3269.62
752.538	3161.62
752.789	3265.62
753.041	3324.62
753.293	3293.62
753.544	3208.62
753.796	3179.62
754.048	3282.62
754.299	3304.62
754.551	3249.62
754.803	3191.62
755.054	3207.62
755.306	3234.62
755.558	3104.62
755.809	3129.62
756.061	3310.62
756.312	3194.62
756.564	3153.62
756.816	3163.62
757.067	3186.62
757.319	3155.62
757.57	3093.62
757.822	3168.62
758.073	3252.62
758.325	3196.62
758.577	3052.62
758.828	3047.62
759.08	3259.62
759.331	3227.62
759.583	3026.62
759.834	3112.62
760.086	3035.62
760.337	3027.62
760.589	3000.62
760.84	2972.62
761.092	3019.62
761.343	3015.62
761.595	2891.62
761.846	3004.62
762.097	3039.62
762.349	3005.62
762.6	2847.62
762.852	2986.62
763.103	3125.62
763.355	2966.62
763.606	2872.62
763.857	2995.62
764.109	3100.62
764.36	2992.62
764.612	2899.62
764.863	2977.62
765.114	3002.62
765.366	2861.62
765.617	2777.62
765.868	2804.62
766.12	2944.62
766.371	2936.62
766.622	2743.62
766.874	2854.62
767.125	2995.62
767.376	2875.62
767.628	2768.62
767.879	2845.62
768.13	2914.62
768.381	2883.62
768.633	2807.62
768.884	2810.62
769.135	2903.62
769.386	2846.62
769.638	2793.62
769.889	2796.62
770.14	2837.62
770.391	2738.62
770.643	2686.62
770.894	2666.62
771.145	2763.62
771.396	2709.62
771.647	2655.62
771.899	2770.62
772.15	2821.62
772.401	2784.62
772.652	2644.62
772.903	2662.62
773.154	2992.62
773.406	3142.62
773.657	2671.62
773.908	2659.62
774.159	2754.62
774.41	2737.62
774.661	2571.62
774.912	2658.62
775.163	2811.62
775.414	2758.62
775.666	2541.62
775.917	2562.62
776.168	2595.62
776.419	2581.62
776.67	2528.62
776.921	2524.62
777.172	2591.62
777.423	2603.62
777.674	2640.62
777.925	2612.62
778.176	2541.62
778.427	2541.62
778.678	2458.62
778.929	2486.62
779.18	2569.62
779.431	2490.62
779.682	2523.62
779.933	2572.62
780.184	2580.62
780.435	2533.62
780.686	2463.62
780.937	2530.62
781.188	2592.62
781.439	2669.62
781.69	2621.62
781.941	2520.62
782.191	2490.62
782.442	2479.62
782.693	2396.62
782.944	2359.62
783.195	2446.62
783.446	2455.62
783.697	2485.62
783.948	2373.62
784.199	2382.62
784.449	2376.62
784.7	2342.62
784.951	2372.62
785.202	2524.62
785.453	2494.62
785.704	2323.62
785.954	2267.62
786.205	2352.62
786.456	2307.62
786.707	2205.62
786.958	2234.62
787.208	2351.62
787.459	2300.62
787.71	2293.62
787.961	2303.62
788.211	2337.62
788.462	2310.62
788.713	2283.62
788.964	2299.62
789.214	2388.62
789.465	2355.62
789.716	2282.62
789.967	2277.62
790.217	2297.62
790.468	2241.62
790.719	2141.62
790.969	2229.62
791.22	2260.62
791.471	2316.62
791.721	2356.62
791.972	2249.62
792.223	2308.62
792.473	2234.62
792.724	2199.62
792.975	2191.62
793.225	2252.62
793.476	2189.62
793.726	2134.62
793.977	2259.62
794.228	2347.62
794.478	2226.62
794.729	2153.62
794.979	2237.62
795.23	2269.62
795.481	2227.62
795.731	2123.62
795.982	2158.62
796.232	2137.62
796.483	2112.62
796.733	2029.62
796.984	2086.62
797.234	2158.62
797.485	2180.62
797.735	2063.62
797.986	2105.62
798.236	2177.62
798.487	2112.62
798.737	2086.62
798.988	2185.62
799.238	2210.62
799.489	2091.62
799.739	2004.62
799.99	2029.62
800.24	2175.62
800.491	2223.62
800.741	2051.62
800.991	1989.62
801.242	2081.62
801.492	2085.62
801.743	2005.62
801.993	2239.62
802.244	2461.62
802.494	2072.62
802.744	2009.62
802.995	2050.62
803.245	2063.62
803.495	2040.62
803.746	1973.62
803.996	2064.62
804.246	2061.62
804.497	2068.62
804.747	1947.62
804.997	2025.62
805.248	2017.62
805.498	1960.62
805.748	1967.62
805.999	1878.62
806.249	1958.62
806.499	1974.62
806.75	1880.62
807	1885.62
807.25	1990.62
807.5	1924.62
807.751	1940.62
808.001	2001.62
808.251	2009.62
808.501	2063.62
808.752	2027.62
809.002	1979.62
809.252	1985.62
809.502	1916.62
809.752	1879.62
810.003	1845.62
810.253	1923.62
810.503	1936.62
810.753	1989.62
811.003	2002.62
811.254	2009.62
811.504	1936.62
811.754	1891.62
812.004	1902.62
812.254	2126.62
812.504	1956.62
812.754	1851.62
813.005	1916.62
813.255	1982.62
813.505	1903.62
813.755	1819.62
814.005	1864.62
814.255	1859.62
814.505	1845.62
814.755	1752.62
815.005	1775.62
815.255	1896.62
815.505	1827.62
815.756	1856.62
816.006	1839.62
816.256	1826.62
816.506	1779.62
816.756	1716.62
817.006	1769.62
817.256	1845.62
817.506	1832.62
817.756	1752.62
818.006	1749.62
818.256	1828.62
818.506	1827.62
818.756	1684.62
819.006	1723.62
819.256	1816.62
819.506	1780.62
819.756	1719.62
820.006	1755.62
820.255	1792.62
820.505	1783.62
820.755	1659.62
821.005	1727.62
821.255	1832.62
821.505	1749.62
821.755	1685.62
822.005	1778.62
822.255	1874.62
822.505	1775.62
822.755	1762.62
823.004	1656.62
823.254	1705.62
823.504	1754.62
823.754	1748.62
824.004	1668.62
824.254	1763.62
824.504	1733.62
824.753	1771.62
825.003	1758.62
825.253	1780.62
825.503	1667.62
825.753	1624.62
826.002	1730.62
826.252	1887.62
826.502	1710.62
826.752	1615.62
827.002	1614.62
827.251	1719.62
827.501	1688.62
827.751	1619.62
828.001	1635.62
828.25	1703.62
828.5	1557.62
828.75	1537.62
829	1639.62
829.249	1740.62
829.499	1586.62
829.749	1577.62
829.998	1639.62
830.248	1674.62
830.498	1544.62
830.748	1555.62
830.997	1621.62
831.247	1716.62
831.497	1688.62
831.746	1579.62
831.996	1668.62
832.246	1771.62
832.495	1777.62
832.745	1513.62
832.994	1535.62
833.244	1692.62
833.494	1587.62
833.743	1473.62
833.993	1555.62
834.243	1634.62
834.492	1607.62
834.742	1547.62
834.991	1531.62
835.241	1708.62
835.49	1542.62
835.74	1459.62
835.99	1537.62
836.239	1648.62
836.489	1663.62
836.738	1515.62
836.988	1402.62
837.237	1548.62
837.487	1650.62
837.736	1524.62
837.986	1500.62
838.235	1556.62
838.485	1559.62
838.734	1530.62
838.984	1599.62
839.233	1531.62
839.483	1431.62
839.732	1386.62
839.982	1481.62
840.231	1576.62
840.481	1570.62
840.73	1426.62
840.979	1494.62
841.229	1509.62
841.478	1482.62
841.728	1367.62
841.977	1340.62
842.227	1416.62
842.476	1391.62
842.725	1339.62
842.975	1395.62
843.224	1513.62
843.474	1565.62
843.723	1440.62
843.972	1425.62
844.222	1460.62
844.471	1501.62
844.72	1411.62
844.97	1401.62
845.219	1502.62
845.468	1474.62
845.718	1395.62
845.967	1400.62
846.216	1460.62
846.466	1517.62
846.715	1411.62
846.964	1414.62
847.214	1380.62
847.463	1348.62
847.712	1351.62
847.961	1325.62
848.211	1370.62
848.46	1373.62
848.709	1331.62
848.958	1303.62
849.208	1370.62
849.457	1363.62
849.706	1331.62
849.955	1313.62
850.205	1302.62
850.454	1457.62
850.703	1469.62
850.952	1410.62
851.201	1430.62
851.451	1350.62
851.7	1377.62
851.949	1273.62
852.198	1331.62
852.447	1293.62
852.696	1231.62
852.946	1301.62
853.195	1407.62
853.444	1395.62
853.693	1216.62
853.942	1199.62
854.191	1317.62
854.44	1343.62
854.689	1272.62
854.939	1210.62
855.188	1199.62
855.437	1244.62
855.686	1229.62
855.935	1256.62
856.184	1311.62
856.433	1348.62
856.682	1276.62
856.931	1267.62
857.18	1300.62
857.429	1234.62
857.678	1190.62
857.927	1233.62
858.176	1263.62
858.425	1188.62
858.674	1106.62
858.924	1202.62
859.173	1218.62
859.422	1223.62
859.671	1098.62
859.92	1175.62
860.169	1231.62
860.417	1247.62
860.666	1184.62
860.915	1153.62
861.164	1183.62
861.413	1110.62
861.662	1060.62
861.911	1123.62
862.16	1248.62
862.409	1203.62
862.658	1066.62
862.907	1117.62
863.156	1200.62
863.405	1191.62
863.654	1095.62
863.903	1061.62
864.151	1143.62
864.4	1180.62
864.649	1116.62
864.898	1142.62
865.147	1184.62
865.396	1196.62
865.645	1062.62
865.894	1131.62
866.142	1247.62
866.391	1148.62
866.64	1023.62
866.889	1088.62
867.138	1249.62
867.387	1162.62
867.635	1075.62
867.884	1149.62
868.133	1242.62
868.382	1132.62
868.631	1001.62
868.879	1020.62
869.128	1129.62
869.377	1114.62
869.626	1059.62
869.874	1069.62
870.123	1153.62
870.372	1104.62
870.621	973.62
870.869	1011.62
871.118	1115.62
871.367	1120.62
871.616	987.62
871.864	1079.62
872.113	1114.62
872.362	1078.62
872.61	1016.62
872.859	1059.62
873.108	1112.62
873.357	1011.62
873.605	939.62
873.854	945.62
874.103	974.62
874.351	973.62
874.6	985.62
874.848	1005.62
875.097	1044.62
875.346	1041.62
875.594	953.62
875.843	1049.62
876.092	1188.62
876.34	1069.62
876.589	950.62
876.837	869.62
877.086	961.62
877.335	1031.62
877.583	956.62
877.832	984.62
878.08	1128.62
878.329	1024.62
878.578	892.62
878.826	915.62
879.075	1024.62
879.323	1025.62
879.572	922.62
879.82	1065.62
880.069	1032.62
880.317	1008.62
880.566	885.62
880.814	986.62
881.063	1104.62
881.311	1007.62
881.56	1002.62
881.808	899.62
882.057	988.62
882.305	977.62
882.554	985.62
882.802	883.62
883.051	916.62
883.299	966.62
883.548	910.62
883.796	977.62
884.045	969.62
884.293	916.62
884.541	812.62
884.79	789.62
885.038	877.62
885.287	900.62
885.535	912.62
885.783	921.62
886.032	881.62
886.28	829.62
886.529	768.62
886.777	852.62
887.025	986.62
887.274	869.62
887.522	827.62
887.77	872.62
888.019	865.62
888.267	842.62
888.516	763.62
888.764	767.62
889.012	868.62
889.261	859.62
889.509	781.62
889.757	798.62
890.005	826.62
890.254	764.62
890.502	790.62
890.75	999.62
890.999	995.62
891.247	899.62
891.495	846.62
891.743	817.62
891.992	960.62
892.24	837.62
892.488	725.62
892.737	756.62
892.985	860.62
893.233	831.62
893.481	783.62
893.729	763.62
893.978	914.62
894.226	932.62
894.474	773.62
894.722	761.62
894.97	797.62
895.219	786.62
895.467	805.62
895.715	844.62
895.963	819.62
896.211	772.62
896.46	685.62
896.708	781.62
896.956	854.62
897.204	910.62
897.452	832.62
897.7	780.62
897.948	816.62
898.197	773.62
898.445	713.62
898.693	753.62
898.941	833.62
899.189	786.62
899.437	737.62
899.685	826.62
899.933	759.62
900.181	741.62
900.43	689.62
900.678	736.62
900.926	795.62
901.174	760.62
901.422	691.62
901.67	712.62
901.918	771.62
902.166	741.62
902.414	596.62
902.662	656.62
902.91	782.62
903.158	779.62
903.406	681.62
903.654	680.62
903.902	737.62
904.15	727.62
904.398	597.62
904.646	705.62
904.894	788.62
905.142	776.62
905.39	731.62
905.638	654.62
905.886	689.62
906.134	680.62
906.382	685.62
906.63	650.62
906.878	722.62
907.126	691.62
907.374	628.62
907.622	634.62
907.869	756.62
908.117	724.62
908.365	633.62
908.613	616.62
908.861	649.62
909.109	605.62
909.357	594.62
909.605	660.62
909.853	717.62
910.1	657.62
910.348	491.62
910.596	524.62
910.844	718.62
911.092	760.62
911.34	647.62
911.588	651.62
911.835	688.62
912.083	666.62
912.331	665.62
912.579	698.62
912.827	856.62
913.075	712.62
913.322	570.62
913.57	569.62
913.818	696.62
914.066	649.62
914.313	576.62
914.561	647.62
914.809	651.62
915.057	598.62
915.305	604.62
915.552	595.62
915.8	695.62
916.048	595.62
916.296	505.62
916.543	639.62
916.791	715.62
917.039	646.62
917.286	489.62
917.534	537.62
917.782	688.62
918.03	593.62
918.277	454.62
918.525	468.62
918.773	585.62
919.02	564.62
919.268	509.62
919.516	565.62
919.763	563.62
920.011	561.62
920.259	460.62
920.506	541.62
920.754	637.62
921.002	611.62
921.249	588.62
921.497	531.62
921.745	590.62
921.992	592.62
922.24	440.62
922.487	568.62
922.735	739.62
922.983	645.62
923.23	535.62
923.478	493.62
923.725	586.62
923.973	598.62
924.221	544.62
924.468	589.62
924.716	597.62
924.963	570.62
925.211	509.62
925.458	559.62
925.706	665.62
925.953	692.62
926.201	515.62
926.448	481.62
926.696	580.62
926.944	563.62
927.191	491.62
927.439	514.62
927.686	540.62
927.934	559.62
928.181	436.62
928.429	452.62
928.676	519.62
928.923	436.62
929.171	395.62
929.418	554.62
929.666	607.62
929.913	588.62
930.161	389.62
930.408	419.62
930.656	515.62
930.903	540.62
931.151	415.62
931.398	453.62
931.645	573.62
931.893	488.62
932.14	458.62
932.388	447.62
932.635	584.62
932.882	618.62
933.13	512.62
933.377	430.62
933.625	529.62
933.872	449.62
934.119	360.62
934.367	410.62
934.614	434.62
934.861	421.62
935.109	413.62
935.356	466.62
935.603	511.62
935.851	447.62
936.098	384.62
936.345	489.62
936.593	525.62
936.84	477.62
937.087	332.62
937.335	393.62
937.582	461.62
937.829	462.62
938.077	423.62
938.324	420.62
938.571	499.62
938.818	420.62
939.066	363.62
939.313	359.62
939.56	482.62
939.807	481.62
940.055	347.62
940.302	385.62
940.549	536.62
940.796	462.62
941.044	413.62
941.291	433.62
941.538	583.62
941.785	443.62
942.033	367.62
942.28	445.62
942.527	496.62
942.774	461.62
943.021	315.62
943.269	369.62
943.516	473.62
943.763	478.62
944.01	410.62
944.257	463.62
944.504	534.62
944.752	484.62
944.999	425.62
945.246	359.62
945.493	419.62
945.74	414.62
945.987	337.62
946.234	412.62
946.482	496.62
946.729	401.62
946.976	341.62
947.223	347.62
947.47	501.62
947.717	462.62
947.964	483.62
948.211	436.62
948.458	494.62
948.705	412.62
948.952	333.62
949.2	399.62
949.447	504.62
949.694	497.62
949.941	352.62
950.188	336.62
950.435	359.62
950.682	376.62
950.929	263.62
951.176	322.62
951.423	473.62
951.67	432.62
951.917	407.62
952.164	400.62
952.411	455.62
952.658	489.62
952.905	362.62
953.152	284.62
953.399	413.62
953.646	405.62
953.893	304.62
954.14	353.62
954.387	389.62
954.634	376.62
954.881	303.62
955.128	361.62
955.375	371.62
955.622	383.62
955.869	361.62
956.115	319.62
956.362	398.62
956.609	374.62
956.856	292.62
957.103	307.62
957.35	411.62
957.597	403.62
957.844	348.62
958.091	343.62
958.338	413.62
958.585	358.62
958.831	179.62
959.078	249.62
959.325	396.62
959.572	300.62
959.819	213.62
960.066	186.62
960.313	333.62
960.559	312.62
960.806	185.62
961.053	249.62
961.3	405.62
961.547	426.62
961.794	219.62
962.04	361.62
962.287	387.62
962.534	266.62
962.781	242.62
963.028	328.62
963.274	441.62
963.521	336.62
963.768	251.62
964.015	277.62
964.262	429.62
964.508	282.62
964.755	186.62
965.002	227.62
965.249	272.62
965.495	221.62
965.742	185.62
965.989	208.62
966.236	332.62
966.482	260.62
966.729	198.62
966.976	188.62
967.222	263.62
967.469	271.62
967.716	205.62
967.963	205.62
968.209	285.62
968.456	246.62
968.703	143.62
968.949	245.62
969.196	412.62
969.443	402.62
969.689	177.62
969.936	143.62
970.183	260.62
970.429	215.62
970.676	167.62
970.923	241.62
971.169	283.62
971.416	213.62
971.663	177.62
971.909	232.62
972.156	287.62
972.402	278.62
972.649	209.62
972.896	246.62
973.142	248.62
973.389	282.62
973.635	205.62
973.882	308.62
974.129	358.62
974.375	237.62
974.622	151.62
974.868	167.62
975.115	247.62
975.361	200.62
975.608	164.62
975.855	288.62
976.101	323.62
976.348	246.62
976.594	183.62
976.841	232.62
977.087	246.62
977.334	264.62
977.58	117.62
977.827	120.62
978.073	267.62
978.32	245.62
978.566	125.62
978.813	206.62
979.059	233.62
979.306	215.62
979.552	125.62
979.799	193.62
980.045	210.62
980.292	204.62
980.538	113.62
980.785	102.62
981.031	146.62
981.278	127.62
981.524	92.62
981.771	244.62
982.017	387.62
982.263	279.62
982.51	126.62
982.756	204.62
983.003	260.62
983.249	189.62
983.495	112.62
983.742	117.62
983.988	203.62
984.235	221.62
984.481	122.62
984.727	113.62
984.974	226.62
985.22	210.62
985.467	138.62
985.713	160.62
985.959	260.62
986.206	213.62
986.452	144.62
986.698	193.62
986.945	196.62
987.191	229.62
987.437	249.62
987.684	177.62
987.93	316.62
988.176	251.62
988.423	83.62
988.669	146.62
988.915	316.62
989.162	181.62
989.408	53.62
989.654	120.62
989.901	170.62
990.147	160.62
990.393	172.62
990.639	231.62
990.886	267.62
991.132	305.62
991.378	220.62
991.625	331.62
991.871	313.62
992.117	234.62
992.363	147.62
992.61	203.62
992.856	304.62
993.102	151.62
993.348	79.62
993.594	135.62
993.841	202.62
994.087	309.62
994.333	173.62
994.579	140.62
994.826	212.62
995.072	231.62
995.318	22.62
995.564	66.62
995.81	195.62
996.057	141.62
996.303	49.62
996.549	70.62
996.795	160.62
997.041	146.62
997.287	113.62
997.534	121.62
997.78	164.62
998.026	177.62
998.272	63.62
998.518	67.62
998.764	210.62
999.01	215.62
999.256	121.62
999.503	89.62
999.749	107.62
999.995	56.62
1000.241	69.62
1000.487	148.62
1000.733	185.62
1000.979	132.62
1001.225	98.62
1001.471	178.62
1001.718	211.62
1001.964	248.62
1002.21	85.62
1002.456	117.62
1002.702	251.62
1002.948	169.62
1003.194	83.62
1003.44	44.62
1003.686	140.62
1003.932	106.62
1004.178	52.62
1004.424	124.62
1004.67	271.62
1004.916	216.62
1005.162	125.62
1005.408	90.62
1005.654	222.62
1005.9	58.62
1006.146	18.62
1006.392	93.62
1006.638	168.62
1006.884	137.62
1007.13	55.62
1007.376	21.62
1007.622	210.62
1007.868	228.62
1008.114	74.62
1008.36	140.62
1008.606	190.62
1008.852	199.62
1009.098	129.62
1009.344	161.62
1009.59	143.62
1009.836	13.62
1010.082	-63.38
1010.328	66.62
1010.574	145.62
1010.82	48.62
1011.065	-16.38
1011.311	1.62
1011.557	106.62
1011.803	85.62
1012.049	10.62
1012.295	56.62
1012.541	99.62
1012.787	97.62
1013.033	-29.38
1013.278	-32.38
1013.524	113.62
1013.77	188.62
1014.016	95.62
1014.262	77.62
1014.508	184.62
1014.754	17.62
1015	-3.38
1015.245	146.62
1015.491	177.62
1015.737	132.62
1015.983	-17.38
1016.229	-21.38
1016.475	96.62
1016.72	225.62
1016.966	232.62
1017.212	125.62
1017.458	182.62
1017.704	110.62
1017.949	-12.38
1018.195	147.62
1018.441	227.62
1018.687	189.62
1018.933	44.62
1019.178	35.62
1019.424	203.62
1019.67	216.62
1019.916	7.62
1020.161	32.62
1020.407	89.62
1020.653	59.62
1020.899	-13.38
1021.144	33.62
1021.39	119.62
1021.636	18.62
1021.882	-63.38
1022.127	48.62
1022.373	207.62
1022.619	153.62
1022.865	33.62
1023.11	27.62
1023.356	144.62
1023.602	82.62
1023.847	31.62
1024.093	77.62
1024.339	47.62
1024.584	29.62
1024.83	10.62
1025.076	23.62
1025.321	142.62
1025.567	117.62
1025.813	-7.38
1026.058	93.62
1026.304	132.62
1026.55	45.62
1026.795	20.62
1027.041	24.62
1027.287	92.62
1027.532	108.62
1027.778	74.62
1028.024	39.62
1028.269	88.62
1028.515	15.62
1028.76	-40.38
1029.006	26.62
1029.252	132.62
1029.497	79.62
1029.743	39.62
1029.989	-15.38
1030.234	126.62
1030.48	188.62
1030.725	-20.38
1030.971	29.62
1031.216	155.62
1031.462	70.62
1031.708	-70.38
1031.953	-14.38
1032.199	57.62
1032.444	57.62
1032.69	5.62
1032.935	17.62
1033.181	132.62
1033.426	10.62
1033.672	-135.38
1033.918	-75.38
1034.163	27.62
1034.409	34.62
1034.654	8.62
1034.9	100.62
1035.145	129.62
1035.391	52.62
1035.636	-60.38
1035.882	18.62
1036.127	6.62
1036.373	-27.38
1036.618	-112.38
1036.864	-28.38
1037.109	128.62
1037.355	33.62
1037.6	-53.38
1037.845	-18.38
1038.091	172.62
1038.336	133.62
1038.582	150.62
1038.827	241.62
1039.073	67.62
1039.318	-21.38
1039.564	-117.38
1039.809	-49.38
1040.055	143.62
1040.3	139.62
1040.545	-17.38
1040.791	-27.38
1041.036	36.62
1041.282	60.62
1041.527	96.62
1041.772	-59.38
1042.018	9.62
1042.263	30.62
1042.509	-112.38
1042.754	-56.38
1042.999	67.62
1043.245	30.62
1043.49	-138.38
1043.736	-46.38
1043.981	29.62
1044.226	30.62
1044.472	20.62
1044.717	34.62
1044.962	136.62
1045.208	44.62
1045.453	-166.38
1045.698	-106.38
1045.944	86.62
1046.189	44.62
1046.434	-59.38
1046.68	-39.38
1046.925	140.62
1047.17	-2.38
1047.416	-163.38
1047.661	-74.38
1047.906	66.62
1048.152	48.62
1048.397	-37.38
1048.642	-47.38
1048.887	126.62
1049.133	124.62
1049.378	-30.38
1049.623	-58.38
1049.869	72.62
1050.114	-3.38
1050.359	-87.38
1050.604	1.62
1050.85	148.62
1051.095	23.62
1051.34	-70.38
1051.585	-7.38
1051.831	168.62
1052.076	25.62
1052.321	-185.38
1052.566	-71.38
1052.812	104.62
1053.057	32.62
1053.302	-47.38
1053.547	38.62
1053.792	96.62
1054.038	76.62
1054.283	-111.38
1054.528	-29.38
1054.773	38.62
1055.018	22.62
1055.264	-84.38
1055.509	-116.38
1055.754	20.62
1055.999	-27.38
1056.244	-108.38
1056.49	-53.38
1056.735	40.62
1056.98	-10.38
1057.225	-114.38
1057.47	58.62
1057.715	4.62
1057.96	-79.38
1058.206	-118.38
1058.451	-19.38
1058.696	109.62
1058.941	53.62
1059.186	-134.38
1059.431	-94.38
1059.676	99.62
1059.922	41.62
1060.167	128.62
1060.412	289.62
1060.657	80.62
1060.902	21.62
1061.147	-147.38
1061.392	-69.38
1061.637	74.62
1061.882	1.62
1062.127	-148.38
1062.373	-149.38
1062.618	123.62
1062.863	138.62
1063.108	-48.38
1063.353	-112.38
1063.598	-22.38
1063.843	-28.38
1064.088	-97.38
1064.333	-90.38
1064.578	53.62
1064.823	68.62
1065.068	-171.38
1065.313	-92.38
1065.558	48.62
1065.803	56.62
1066.048	-143.38
1066.293	-128.38
1066.538	82.62
1066.783	19.62
1067.028	-171.38
1067.273	-147.38
1067.518	39.62
1067.763	-35.38
1068.008	-165.38
1068.253	-91.38
1068.498	69.62
1068.743	6.62
1068.988	-158.38
1069.233	-138.38
1069.478	65.62
1069.723	122.62
1069.968	-80.38
1070.213	-41.38
1070.458	76.62
1070.703	-2.38
1070.948	-187.38
1071.193	-90.38
1071.438	58.62
1071.683	87.62
1071.928	-32.38
1072.173	-59.38
1072.418	15.62
1072.663	-30.38
1072.908	-154.38
1073.152	-86.38
1073.397	77.62
1073.642	-36.38
1073.887	-94.38
1074.132	16.62
1074.377	26.62
1074.622	7.62
1074.867	-116.38
1075.112	-63.38
1075.357	128.62
1075.601	-15.38
1075.846	-76.38
1076.091	14.62
1076.336	65.62
1076.581	-67.38
1076.826	-173.38
1077.071	-86.38
1077.315	166.62
1077.56	98.62
1077.805	-102.38
1078.05	-67.38
1078.295	-19.38
1078.54	-39.38
1078.785	-159.38
1079.029	-99.38
1079.274	73.62
1079.519	-56.38
1079.764	-168.38
1080.009	-43.38
1080.253	23.62
1080.498	-67.38
1080.743	-204.38
1080.988	-48.38
1081.233	160.62
1081.478	73.62
1081.722	-131.38
1081.967	-9.38
1082.212	127.62
1082.457	27.62
1082.701	-111.38
1082.946	-84.38
1083.191	43.62
1083.436	-57.38
1083.681	-208.38
1083.925	-96.38
1084.17	-7.38
1084.415	4.62
1084.66	-206.38
1084.904	-96.38
1085.149	-7.38
1085.394	-34.38
1085.639	-198.38
1085.883	-105.38
1086.128	132.62
1086.373	144.62
1086.617	-82.38
1086.862	-143.38
1087.107	-27.38
1087.352	-68.38
1087.596	-149.38
1087.841	-20.38
1088.086	31.62
1088.33	6.62
1088.575	-232.38
1088.82	-107.38
1089.064	66.62
1089.309	-77.38
1089.554	-195.38
1089.798	-164.38
1090.043	40.62
1090.288	-5.38
1090.533	-191.38
1090.777	-104.38
1091.022	32.62
1091.266	51.62
1091.511	-111.38
1091.756	-30.38
1092	127.62
1092.245	100.62
1092.49	-154.38
1092.734	-100.38
1092.979	87.62
1093.224	-24.38
1093.468	-156.38
1093.713	-59.38
1093.957	30.62
1094.202	-43.38
1094.447	-214.38
1094.691	-106.38
1094.936	34.62
1095.181	-2.38
1095.425	-179.38
1095.67	-152.38
1095.914	12.62
1096.159	-11.38
1096.403	-171.38
1096.648	-63.38
1096.893	63.62
1097.137	-89.38
1097.382	-232.38
1097.626	-152.38
1097.871	18.62
1098.115	-39.38
1098.36	-204.38
1098.605	-110.38
1098.849	-37.38
1099.094	-109.38
1099.338	-193.38
1099.583	-100.38
1099.827	127.62
1100.072	44.62
1100.316	-160.38
1100.561	-111.38
1100.805	38.62
1101.05	11.62
1101.294	-170.38
1101.539	-176.38
1101.783	0.62
1102.028	-2.38
1102.273	-147.38
1102.517	-74.38
1102.761	63.62
1103.006	-72.38
1103.25	-271.38
1103.495	-164.38
1103.739	49.62
1103.984	95.62
1104.228	-109.38
1104.473	-43.38
1104.717	25.62
1104.962	2.62
1105.206	-124.38
1105.451	-152.38
1105.695	8.62
1105.94	-24.38
1106.184	-152.38
1106.429	-95.38
1106.673	4.62
1106.917	51.62
1107.162	-172.38
1107.406	-31.38
1107.651	121.62
1107.895	-76.38
1108.14	-187.38
1108.384	-99.38
1108.628	119.62
1108.873	107.62
1109.117	-147.38
1109.362	-132.38
1109.606	-33.38
1109.85	-27.38
1110.095	-164.38
1110.339	-92.38
1110.584	101.62
1110.828	25.62
1111.072	-96.38
1111.317	-123.38
1111.561	-22.38
1111.806	-42.38
1112.05	-168.38
1112.294	-91.38
1112.539	14.62
1112.783	-13.38
1113.027	-127.38
1113.272	-110.38
1113.516	-23.38
1113.76	-50.38
1114.005	-159.38
1114.249	-86.38
1114.493	83.62
1114.738	93.62
1114.982	-46.38
1115.226	-82.38
1115.471	-3.38
1115.715	-28.38
1115.959	-197.38
1116.204	-177.38
1116.448	-15.38
1116.692	-88.38
1116.937	-166.38
1117.181	-28.38
1117.425	-34.38
1117.67	-86.38
1117.914	-168.38
1118.158	-109.38
1118.402	119.62
1118.647	47.62
1118.891	-99.38
1119.135	-38.38
1119.38	97.62
1119.624	17.62
1119.868	-139.38
1120.112	-148.38
1120.357	-50.38
1120.601	-107.38
1120.845	-211.38
1121.089	-148.38
1121.334	37.62
