Data from HR4C21111__28__09-59-06-450.txt Node

Date: Mon Feb 22 09:59:06 IST 2021
User: Kapil
Spectrometer: HR4C2111
Trigger mode: 4
Integration Time (sec): 2.300000E0
Scans to average: 1
Electric dark correction enabled: true
Nonlinearity correction enabled: false
Boxcar width: 0
XAxis mode: Wavelengths
Number of Pixels in Spectrum: 3648
>>>>>Begin Spectral Data<<<<<
189.472	-437.31
189.745	-437.31
190.017	-437.31
190.289	-467.31
190.561	-301.31
190.834	-20.31
191.106	-108.31
191.378	22.69
191.65	10.69
191.923	-136.31
192.195	-101.31
192.467	128.69
192.739	107.69
193.011	-25.31
193.284	85.69
193.556	167.69
193.828	-27.31
194.1	-104.31
194.372	-121.31
194.644	54.69
194.916	75.69
195.188	-156.31
195.46	-71.31
195.732	69.69
196.004	-22.31
196.276	-105.31
196.548	-54.31
196.82	78.69
197.092	67.69
197.364	-132.31
197.636	-90.31
197.908	12.69
198.18	-41.31
198.452	-77.31
198.724	-37.31
198.996	44.69
199.268	80.69
199.54	-12.31
199.811	-117.31
200.083	101.69
200.355	22.69
200.627	-180.31
200.899	-73.31
201.171	38.69
201.442	-53.31
201.714	-168.31
201.986	-91.31
202.258	60.69
202.529	118.69
202.801	9.69
203.073	80.69
203.345	187.69
203.616	11.69
203.888	-144.31
204.16	-146.31
204.431	81.69
204.703	-6.31
204.974	-143.31
205.246	13.69
205.518	204.69
205.789	-0.31
206.061	-138.31
206.332	-104.31
206.604	24.69
206.876	102.69
207.147	134.69
207.419	11.69
207.69	130.69
207.962	-20.31
208.233	-184.31
208.505	6.69
208.776	168.69
209.047	71.69
209.319	-125.31
209.59	-79.31
209.862	119.69
210.133	-20.31
210.404	-159.31
210.676	-110.31
210.947	87.69
211.219	72.69
211.49	-125.31
211.761	-50.31
212.033	42.69
212.304	-25.31
212.575	-175.31
212.846	-87.31
213.118	31.69
213.389	-68.31
213.66	-97.31
213.931	-25.31
214.203	20.69
214.474	-33.31
214.745	-121.31
215.016	139.69
215.287	449.69
215.559	79.69
215.83	-108.31
216.101	-52.31
216.372	12.69
216.643	94.69
216.914	25.69
217.185	-77.31
217.456	160.69
217.727	35.69
217.998	-147.31
218.269	-38.31
218.54	43.69
218.811	-3.31
219.082	-91.31
219.353	-58.31
219.624	-8.31
219.895	-37.31
220.166	-137.31
220.437	-105.31
220.708	106.69
220.979	-6.31
221.25	-139.31
221.521	-91.31
221.792	27.69
222.063	83.69
222.334	19.69
222.604	163.69
222.875	170.69
223.146	96.69
223.417	-164.31
223.688	-36.31
223.958	118.69
224.229	-53.31
224.5	-183.31
224.771	-80.31
225.041	68.69
225.312	48.69
225.583	-109.31
225.854	-41.31
226.124	99.69
226.395	-3.31
226.666	-125.31
226.936	-98.31
227.207	69.69
227.478	-32.31
227.748	-79.31
228.019	46.69
228.289	232.69
228.56	-32.31
228.831	-39.31
229.101	62.69
229.372	61.69
229.642	-18.31
229.913	-160.31
230.183	-117.31
230.454	-9.31
230.724	-3.31
230.995	-91.31
231.265	-50.31
231.536	73.69
231.806	43.69
232.076	-105.31
232.347	-112.31
232.617	34.69
232.888	45.69
233.158	-48.31
233.428	-132.31
233.699	-18.31
233.969	-41.31
234.239	-154.31
234.51	-75.31
234.78	56.69
235.05	-1.31
235.321	-115.31
235.591	-62.31
235.861	64.69
236.131	-58.31
236.402	-195.31
236.672	-84.31
236.942	55.69
237.212	58.69
237.483	-47.31
237.753	0.69
238.023	161.69
238.293	22.69
238.563	-77.31
238.833	-85.31
239.103	82.69
239.374	-13.31
239.644	-147.31
239.914	-29.31
240.184	131.69
240.454	-3.31
240.724	-164.31
240.994	-65.31
241.264	25.69
241.534	69.69
241.804	-12.31
242.074	-87.31
242.344	-27.31
242.614	-61.31
242.884	-166.31
243.154	-115.31
243.424	46.69
243.694	75.69
243.964	-90.31
244.234	-75.31
244.503	129.69
244.773	26.69
245.043	-222.31
245.313	-141.31
245.583	118.69
245.853	97.69
246.123	-163.31
246.392	-100.31
246.662	11.69
246.932	-8.31
247.202	-176.31
247.471	-60.31
247.741	260.69
248.011	108.69
248.281	-143.31
248.55	-65.31
248.82	91.69
249.09	-4.31
249.359	-93.31
249.629	-63.31
249.899	66.69
250.168	66.69
250.438	-22.31
250.708	-99.31
250.977	94.69
251.247	70.69
251.516	-109.31
251.786	-40.31
252.055	123.69
252.325	23.69
252.595	-95.31
252.864	-74.31
253.134	57.69
253.403	-35.31
253.673	-180.31
253.942	-110.31
254.212	39.69
254.481	-2.31
254.75	-140.31
255.02	-89.31
255.289	75.69
255.559	-5.31
255.828	-120.31
256.097	-27.31
256.367	42.69
256.636	-54.31
256.906	-130.31
257.175	-11.31
257.444	262.69
257.714	66.69
257.983	-85.31
258.252	-37.31
258.521	18.69
258.791	39.69
259.06	-113.31
259.329	-29.31
259.598	61.69
259.868	-7.31
260.137	-120.31
260.406	22.69
260.675	88.69
260.944	30.69
261.214	-132.31
261.483	-53.31
261.752	187.69
262.021	13.69
262.29	-170.31
262.559	-119.31
262.828	14.69
263.097	-44.31
263.366	-207.31
263.635	-86.31
263.905	141.69
264.174	23.69
264.443	-205.31
264.712	-98.31
264.981	44.69
265.25	-44.31
265.519	-144.31
265.788	-131.31
266.057	38.69
266.325	65.69
266.594	-57.31
266.863	-124.31
267.132	30.69
267.401	5.69
267.67	-194.31
267.939	-133.31
268.208	28.69
268.477	71.69
268.745	-138.31
269.014	-96.31
269.283	139.69
269.552	38.69
269.821	-116.31
270.089	-13.31
270.358	14.69
270.627	-19.31
270.896	-139.31
271.164	-169.31
271.433	16.69
271.702	97.69
271.971	-137.31
272.239	-141.31
272.508	17.69
272.777	-27.31
273.045	-28.31
273.314	-27.31
273.583	99.69
273.851	-14.31
274.12	-145.31
274.388	-106.31
274.657	12.69
274.926	-9.31
275.194	-162.31
275.463	-61.31
275.731	42.69
276	198.69
276.268	387.69
276.537	-81.31
276.805	31.69
277.074	40.69
277.342	-173.31
277.611	-92.31
277.879	114.69
278.148	58.69
278.416	-120.31
278.684	-98.31
278.953	-10.31
279.221	-28.31
279.49	-192.31
279.758	-102.31
280.026	11.69
280.295	9.69
280.563	-117.31
280.831	1039.69
281.1	2481.69
281.368	234.69
281.636	-78.31
281.904	-99.31
282.173	-12.31
282.441	-55.31
282.709	-79.31
282.977	37.69
283.246	56.69
283.514	-21.31
283.782	-58.31
284.05	20.69
284.318	72.69
284.587	-21.31
284.855	-130.31
285.123	-45.31
285.391	76.69
285.659	59.69
285.927	-140.31
286.195	-61.31
286.463	60.69
286.732	-0.31
287	-102.31
287.268	-51.31
287.536	27.69
287.804	-24.31
288.072	-130.31
288.34	-67.31
288.608	71.69
288.876	-35.31
289.144	-113.31
289.412	-13.31
289.68	47.69
289.948	-24.31
290.215	-105.31
290.483	-106.31
290.751	98.69
291.019	102.69
291.287	-171.31
291.555	-108.31
291.823	40.69
292.091	-19.31
292.358	-82.31
292.626	-26.31
292.894	78.69
293.162	55.69
293.43	-103.31
293.697	-84.31
293.965	47.69
294.233	-23.31
294.501	-157.31
294.768	-68.31
295.036	71.69
295.304	25.69
295.572	-133.31
295.839	-98.31
296.107	114.69
296.375	22.69
296.642	-120.31
296.91	-109.31
297.178	66.69
297.445	176.69
297.713	89.69
297.98	-79.31
298.248	-27.31
298.516	-40.31
298.783	-111.31
299.051	-110.31
299.318	26.69
299.586	-22.31
299.853	-86.31
300.121	-63.31
300.388	57.69
300.656	-7.31
300.923	-142.31
301.191	-39.31
301.458	60.69
301.726	-12.31
301.993	-151.31
302.26	-98.31
302.528	43.69
302.795	-3.31
303.063	-81.31
303.33	-53.31
303.597	36.69
303.865	27.69
304.132	-129.31
304.399	-110.31
304.667	-6.31
304.934	16.69
305.201	-117.31
305.469	-12.31
305.736	64.69
306.003	29.69
306.27	-50.31
306.538	-89.31
306.805	-6.31
307.072	-20.31
307.339	-64.31
307.606	-40.31
307.874	166.69
308.141	83.69
308.408	-117.31
308.675	-103.31
308.942	-47.31
309.209	-69.31
309.477	-126.31
309.744	-84.31
310.011	30.69
310.278	60.69
310.545	-25.31
310.812	-46.31
311.079	133.69
311.346	202.69
311.613	71.69
311.88	-24.31
312.147	-56.31
312.414	-27.31
312.681	-101.31
312.948	-22.31
313.215	140.69
313.482	94.69
313.749	-102.31
314.016	-191.31
314.283	-44.31
314.55	65.69
314.817	-94.31
315.083	-126.31
315.35	-69.31
315.617	-143.31
315.884	-149.31
316.151	73.69
316.418	185.69
316.684	-14.31
316.951	-180.31
317.218	-102.31
317.485	13.69
317.752	-48.31
318.018	-114.31
318.285	-2.31
318.552	39.69
318.819	-44.31
319.085	-138.31
319.352	-58.31
319.619	42.69
319.885	-14.31
320.152	-197.31
320.419	-95.31
320.685	49.69
320.952	-16.31
321.219	-54.31
321.485	73.69
321.752	13.69
322.019	-37.31
322.285	43.69
322.552	-12.31
322.818	123.69
323.085	-24.31
323.351	-124.31
323.618	4.69
323.884	57.69
324.151	-61.31
324.417	-28.31
324.684	-70.31
324.95	-54.31
325.217	-140.31
325.483	-165.31
325.75	-13.31
326.016	12.69
326.283	-28.31
326.549	-183.31
326.815	-58.31
327.082	111.69
327.348	11.69
327.615	-100.31
327.881	-19.31
328.147	136.69
328.414	140.69
328.68	29.69
328.946	-21.31
329.212	42.69
329.479	21.69
329.745	-99.31
330.011	-110.31
330.278	9.69
330.544	-51.31
330.81	-38.31
331.076	-27.31
331.342	-32.31
331.609	-29.31
331.875	-83.31
332.141	-94.31
332.407	35.69
332.673	-3.31
332.94	-17.31
333.206	-36.31
333.472	67.69
333.738	87.69
334.004	-103.31
334.27	-18.31
334.536	15.69
334.802	-24.31
335.068	-90.31
335.334	-4.31
335.6	28.69
335.866	-36.31
336.132	-166.31
336.398	-87.31
336.664	-10.31
336.93	-28.31
337.196	-81.31
337.462	4.69
337.728	33.69
337.994	-38.31
338.26	-109.31
338.526	-40.31
338.792	-45.31
339.058	-42.31
339.324	-126.31
339.59	-0.31
339.856	74.69
340.121	-39.31
340.387	-104.31
340.653	95.69
340.919	167.69
341.185	79.69
341.45	-46.31
341.716	57.69
341.982	135.69
342.248	-41.31
342.514	-86.31
342.779	1.69
343.045	35.69
343.311	-14.31
343.576	-85.31
343.842	-25.31
344.108	143.69
344.374	37.69
344.639	-96.31
344.905	-74.31
345.171	82.69
345.436	-37.31
345.702	-81.31
345.967	63.69
346.233	102.69
346.499	40.69
346.764	-159.31
347.03	-57.31
347.295	-11.31
347.561	27.69
347.826	-3.31
348.092	-97.31
348.357	0.69
348.623	-11.31
348.888	-101.31
349.154	-51.31
349.419	77.69
349.685	42.69
349.95	-37.31
350.216	-20.31
350.481	73.69
350.747	-9.31
351.012	-120.31
351.277	-46.31
351.543	82.69
351.808	33.69
352.074	-127.31
352.339	-68.31
352.604	101.69
352.87	73.69
353.135	-43.31
353.4	-4.31
353.666	49.69
353.931	32.69
354.196	-103.31
354.461	-70.31
354.727	95.69
354.992	63.69
355.257	-65.31
355.522	39.69
355.788	80.69
356.053	149.69
356.318	-10.31
356.583	-34.31
356.848	177.69
357.113	295.69
357.379	28.69
357.644	-6.31
357.909	182.69
358.174	213.69
358.439	-50.31
358.704	30.69
358.969	165.69
359.234	165.69
359.499	-30.31
359.765	70.69
360.03	190.69
360.295	190.69
360.56	46.69
360.825	110.69
361.09	323.69
361.355	120.69
361.62	91.69
361.885	144.69
362.15	102.69
362.415	125.69
362.679	75.69
362.944	221.69
363.209	247.69
363.474	258.69
363.739	211.69
364.004	145.69
364.269	214.69
364.534	269.69
364.799	220.69
365.063	224.69
365.328	335.69
365.593	337.69
365.858	190.69
366.123	195.69
366.387	358.69
366.652	293.69
366.917	192.69
367.182	259.69
367.447	412.69
367.711	356.69
367.976	288.69
368.241	368.69
368.505	454.69
368.77	351.69
369.035	337.69
369.299	398.69
369.564	414.69
369.829	379.69
370.093	346.69
370.358	339.69
370.623	479.69
370.887	487.69
371.152	348.69
371.416	431.69
371.681	473.69
371.946	391.69
372.21	376.69
372.475	531.69
372.739	553.69
373.004	519.69
373.268	494.69
373.533	549.69
373.797	630.69
374.062	616.69
374.326	460.69
374.591	552.69
374.855	653.69
375.12	600.69
375.384	463.69
375.648	551.69
375.913	717.69
376.177	757.69
376.442	622.69
376.706	633.69
376.97	756.69
377.235	743.69
377.499	731.69
377.763	764.69
378.028	765.69
378.292	817.69
378.556	739.69
378.821	685.69
379.085	792.69
379.349	747.69
379.614	707.69
379.878	849.69
380.142	1055.69
380.406	967.69
380.671	979.69
380.935	1112.69
381.199	1227.69
381.463	1113.69
381.727	1064.69
381.991	1049.69
382.256	1153.69
382.52	1115.69
382.784	1154.69
383.048	1284.69
383.312	1215.69
383.576	1199.69
383.84	1109.69
384.104	1174.69
384.369	1305.69
384.633	1219.69
384.897	1127.69
385.161	1277.69
385.425	1427.69
385.689	1351.69
385.953	1342.69
386.217	1367.69
386.481	1471.69
386.745	1509.69
387.009	1467.69
387.273	1452.69
387.537	1490.69
387.801	1541.69
388.064	1526.69
388.328	1648.69
388.592	1722.69
388.856	1684.69
389.12	1633.69
389.384	1725.69
389.648	1758.69
389.912	1849.69
390.176	1849.69
390.439	1971.69
390.703	1811.69
390.967	1807.69
391.231	1729.69
391.495	1838.69
391.758	1939.69
392.022	1987.69
392.286	1846.69
392.55	1891.69
392.813	2029.69
393.077	2106.69
393.341	2069.69
393.605	2148.69
393.868	2113.69
394.132	2134.69
394.396	2101.69
394.659	2261.69
394.923	2220.69
395.187	2187.69
395.45	2204.69
395.714	2279.69
395.978	2311.69
396.241	2331.69
396.505	2288.69
396.768	2349.69
397.032	2428.69
397.295	2452.69
397.559	2397.69
397.823	2381.69
398.086	2535.69
398.35	2504.69
398.613	2469.69
398.877	2528.69
399.14	2702.69
399.404	2774.69
399.667	2666.69
399.931	2616.69
400.194	2738.69
400.457	2737.69
400.721	2749.69
400.984	2857.69
401.248	2801.69
401.511	2790.69
401.775	2666.69
402.038	2718.69
402.301	2968.69
402.565	3002.69
402.828	2817.69
403.091	2888.69
403.355	3067.69
403.618	3039.69
403.881	3027.69
404.145	3077.69
404.408	3156.69
404.671	3103.69
404.934	3174.69
405.198	3256.69
405.461	3242.69
405.724	3285.69
405.987	3303.69
406.251	3357.69
406.514	3471.69
406.777	3345.69
407.04	3312.69
407.303	3288.69
407.567	3443.69
407.83	3514.69
408.093	3372.69
408.356	3513.69
408.619	3600.69
408.882	3634.69
409.145	3526.69
409.408	3492.69
409.672	3621.69
409.935	3581.69
410.198	3454.69
410.461	3539.69
410.724	3806.69
410.987	3739.69
411.25	3542.69
411.513	3672.69
411.776	3766.69
412.039	3635.69
412.302	3597.69
412.565	3651.69
412.828	3688.69
413.091	3719.69
413.354	3666.69
413.617	3609.69
413.879	3690.69
414.142	3726.69
414.405	3554.69
414.668	3582.69
414.931	3711.69
415.194	3712.69
415.457	3584.69
415.72	3661.69
415.983	3707.69
416.245	3750.69
416.508	3614.69
416.771	3522.69
417.034	3714.69
417.297	3708.69
417.559	3667.69
417.822	3659.69
418.085	3730.69
418.348	3737.69
418.61	3613.69
418.873	3591.69
419.136	3604.69
419.399	3630.69
419.661	3676.69
419.924	3613.69
420.187	3713.69
420.449	3711.69
420.712	3689.69
420.975	3666.69
421.237	3769.69
421.5	3748.69
421.762	3819.69
422.025	3868.69
422.288	3959.69
422.55	3752.69
422.813	3674.69
423.075	3791.69
423.338	3883.69
423.601	3924.69
423.863	3903.69
424.126	3958.69
424.388	4053.69
424.651	3992.69
424.913	3989.69
425.176	4050.69
425.438	4013.69
425.701	3993.69
425.963	3920.69
426.225	3934.69
426.488	3998.69
426.75	4016.69
427.013	4009.69
427.275	4089.69
427.538	4090.69
427.8	4127.69
428.062	4024.69
428.325	4067.69
428.587	4167.69
428.849	4180.69
429.112	4197.69
429.374	4162.69
429.636	4117.69
429.899	4211.69
430.161	4165.69
430.423	4240.69
430.686	4457.69
430.948	4407.69
431.21	4226.69
431.472	4133.69
431.735	4309.69
431.997	4345.69
432.259	4296.69
432.521	4179.69
432.783	4313.69
433.046	4328.69
433.308	4202.69
433.57	4269.69
433.832	4523.69
434.094	4343.69
434.356	4182.69
434.618	4266.69
434.881	4367.69
435.143	4497.69
435.405	4459.69
435.667	4390.69
435.929	4437.69
436.191	4462.69
436.453	4334.69
436.715	4465.69
436.977	4622.69
437.239	4730.69
437.501	4637.69
437.763	4582.69
438.025	4649.69
438.287	4580.69
438.549	4585.69
438.811	4509.69
439.073	4567.69
439.335	4589.69
439.597	4504.69
439.859	4479.69
440.121	4658.69
440.383	4612.69
440.645	4556.69
440.907	4598.69
441.168	4636.69
441.43	4602.69
441.692	4618.69
441.954	4696.69
442.216	4763.69
442.478	4655.69
442.74	4572.69
443.001	4695.69
443.263	4882.69
443.525	4663.69
443.787	4519.69
444.048	4572.69
444.31	4635.69
444.572	4699.69
444.834	4653.69
445.095	4641.69
445.357	4830.69
445.619	4637.69
445.881	4485.69
446.142	4626.69
446.404	4605.69
446.666	4611.69
446.927	4612.69
447.189	4735.69
447.451	4806.69
447.712	4620.69
447.974	4474.69
448.235	4523.69
448.497	4662.69
448.759	4535.69
449.02	4587.69
449.282	4550.69
449.543	4620.69
449.805	4690.69
450.066	4446.69
450.328	4584.69
450.59	4807.69
450.851	4640.69
451.113	4495.69
451.374	4466.69
451.636	4718.69
451.897	4749.69
452.158	4622.69
452.42	4670.69
452.681	4712.69
452.943	4554.69
453.204	4568.69
453.466	4571.69
453.727	4567.69
453.988	4635.69
454.25	4533.69
454.511	4574.69
454.773	4663.69
455.034	4759.69
455.295	4525.69
455.557	4697.69
455.818	4709.69
456.079	4630.69
456.341	4753.69
456.602	4797.69
456.863	4847.69
457.124	4705.69
457.386	4552.69
457.647	4556.69
457.908	4668.69
458.169	4814.69
458.431	4670.69
458.692	4698.69
458.953	4753.69
459.214	4773.69
459.476	4927.69
459.737	5035.69
459.998	5032.69
460.259	4866.69
460.52	4823.69
460.781	4960.69
461.043	5138.69
461.304	5003.69
461.565	4803.69
461.826	4916.69
462.087	5098.69
462.348	5246.69
462.609	5201.69
462.87	5175.69
463.131	5082.69
463.392	5330.69
463.653	5337.69
463.914	5302.69
464.175	5283.69
464.436	5358.69
464.697	5400.69
464.958	5239.69
465.219	5253.69
465.48	5360.69
465.741	5460.69
466.002	5378.69
466.263	5529.69
466.524	5593.69
466.785	5455.69
467.046	5526.69
467.307	5667.69
467.568	5742.69
467.829	5705.69
468.089	5678.69
468.35	5745.69
468.611	5662.69
468.872	5598.69
469.133	5820.69
469.394	6005.69
469.655	6166.69
469.915	6042.69
470.176	5858.69
470.437	5968.69
470.698	6141.69
470.958	6160.69
471.219	6202.69
471.48	6362.69
471.741	6501.69
472.001	6411.69
472.262	6433.69
472.523	6666.69
472.784	6751.69
473.044	6658.69
473.305	6720.69
473.566	6727.69
473.826	6798.69
474.087	6745.69
474.348	6864.69
474.608	7070.69
474.869	7004.69
475.129	6908.69
475.39	6989.69
475.651	7160.69
475.911	7333.69
476.172	7254.69
476.432	7368.69
476.693	7603.69
476.953	7515.69
477.214	7528.69
477.475	7570.69
477.735	7589.69
477.996	7781.69
478.256	7599.69
478.517	7727.69
478.777	7843.69
479.038	7996.69
479.298	8079.69
479.558	8126.69
479.819	8231.69
480.079	8266.69
480.34	8356.69
480.6	8234.69
480.861	8388.69
481.121	8464.69
481.381	8460.69
481.642	8613.69
481.902	8611.69
482.162	8617.69
482.423	8665.69
482.683	8737.69
482.943	8827.69
483.204	8805.69
483.464	8818.69
483.724	8844.69
483.985	8943.69
484.245	9082.69
484.505	9090.69
484.765	9198.69
485.026	9269.69
485.286	9339.69
485.546	9307.69
485.806	9326.69
486.067	9420.69
486.327	9287.69
486.587	9271.69
486.847	9417.69
487.107	9574.69
487.368	9578.69
487.628	9547.69
487.888	9670.69
488.148	9721.69
488.408	9631.69
488.668	9729.69
488.928	9744.69
489.188	9755.69
489.449	9873.69
489.709	9746.69
489.969	9810.69
490.229	9946.69
490.489	9953.69
490.749	9793.69
491.009	9713.69
491.269	9888.69
491.529	9984.69
491.789	9958.69
492.049	10017.69
492.309	10154.69
492.569	10062.69
492.829	10028.69
493.089	10030.69
493.349	10223.69
493.609	10050.69
493.869	9953.69
494.129	10152.69
494.389	10252.69
494.648	10117.69
494.908	10076.69
495.168	10155.69
495.428	10231.69
495.688	10197.69
495.948	10077.69
496.208	10061.69
496.467	10135.69
496.727	10150.69
496.987	10151.69
497.247	10202.69
497.507	10295.69
497.767	10361.69
498.026	10154.69
498.286	10287.69
498.546	10455.69
498.806	10322.69
499.065	10331.69
499.325	10291.69
499.585	10320.69
499.845	10346.69
500.104	10331.69
500.364	10364.69
500.624	10370.69
500.883	10315.69
501.143	10390.69
501.403	10424.69
501.662	10450.69
501.922	10456.69
502.182	10266.69
502.441	10205.69
502.701	10302.69
502.96	10396.69
503.22	10368.69
503.48	10355.69
503.739	10419.69
503.999	10307.69
504.258	10199.69
504.518	10271.69
504.777	10431.69
505.037	10428.69
505.296	10318.69
505.556	10266.69
505.815	10426.69
506.075	10529.69
506.334	10457.69
506.594	10300.69
506.853	10289.69
507.113	10338.69
507.372	10207.69
507.632	10312.69
507.891	10366.69
508.151	10398.69
508.41	10246.69
508.669	10261.69
508.929	10323.69
509.188	10264.69
509.447	10289.69
509.707	10238.69
509.966	10291.69
510.226	10337.69
510.485	10315.69
510.744	10351.69
511.004	10455.69
511.263	10389.69
511.522	10286.69
511.781	10287.69
512.041	10407.69
512.3	10345.69
512.559	10283.69
512.818	10413.69
513.078	10471.69
513.337	10454.69
513.596	10349.69
513.855	10320.69
514.115	10370.69
514.374	10424.69
514.633	10364.69
514.892	10354.69
515.151	10476.69
515.41	10510.69
515.67	10423.69
515.929	10401.69
516.188	10533.69
516.447	10473.69
516.706	10409.69
516.965	10494.69
517.224	10502.69
517.483	10495.69
517.743	10460.69
518.002	10465.69
518.261	10561.69
518.52	10533.69
518.779	10438.69
519.038	10474.69
519.297	10511.69
519.556	10502.69
519.815	10381.69
520.074	10361.69
520.333	10535.69
520.592	10519.69
520.851	10390.69
521.11	10544.69
521.369	10627.69
521.628	10474.69
521.887	10421.69
522.145	10443.69
522.404	10505.69
522.663	10478.69
522.922	10388.69
523.181	10414.69
523.44	10557.69
523.699	10560.69
523.958	10371.69
524.217	10354.69
524.475	10459.69
524.734	10482.69
524.993	10468.69
525.252	10458.69
525.511	10529.69
525.769	10470.69
526.028	10389.69
526.287	10459.69
526.546	10502.69
526.805	10453.69
527.063	10356.69
527.322	10342.69
527.581	10481.69
527.839	10495.69
528.098	10469.69
528.357	10437.69
528.616	10415.69
528.874	10437.69
529.133	10383.69
529.392	10434.69
529.65	10409.69
529.909	10400.69
530.168	10353.69
530.426	10378.69
530.685	10492.69
530.943	10443.69
531.202	10291.69
531.461	10283.69
531.719	10459.69
531.978	10484.69
532.236	10337.69
532.495	10408.69
532.753	10480.69
533.012	10419.69
533.271	10361.69
533.529	10321.69
533.788	10397.69
534.046	10360.69
534.305	10320.69
534.563	10529.69
534.822	10578.69
535.08	10449.69
535.338	10376.69
535.597	10384.69
535.855	10511.69
536.114	10462.69
536.372	10393.69
536.631	10491.69
536.889	10510.69
537.147	10467.69
537.406	10299.69
537.664	10465.69
537.923	10562.69
538.181	10553.69
538.439	10374.69
538.698	10501.69
538.956	10569.69
539.214	10531.69
539.473	10472.69
539.731	10562.69
539.989	10659.69
540.248	10582.69
540.506	10605.69
540.764	10609.69
541.022	10647.69
541.281	10724.69
541.539	10597.69
541.797	10606.69
542.055	10739.69
542.314	10876.69
542.572	10834.69
542.83	10796.69
543.088	10905.69
543.346	10826.69
543.604	10735.69
543.863	10811.69
544.121	11004.69
544.379	10961.69
544.637	10872.69
544.895	11017.69
545.153	11128.69
545.411	11004.69
545.67	10877.69
545.928	11027.69
546.186	11159.69
546.444	11196.69
546.702	11133.69
546.96	11229.69
547.218	11273.69
547.476	11242.69
547.734	11239.69
547.992	11319.69
548.25	11494.69
548.508	11410.69
548.766	11393.69
549.024	11410.69
549.282	11423.69
549.54	11518.69
549.798	11585.69
550.056	11609.69
550.314	11670.69
550.572	11638.69
550.83	11550.69
551.088	11723.69
551.346	11846.69
551.603	11862.69
551.861	11790.69
552.119	11961.69
552.377	12051.69
552.635	11951.69
552.893	11875.69
553.151	11969.69
553.409	12115.69
553.666	12152.69
553.924	12118.69
554.182	12039.69
554.44	12236.69
554.698	12344.69
554.955	12209.69
555.213	12178.69
555.471	12330.69
555.729	12338.69
555.986	12213.69
556.244	12311.69
556.502	12544.69
556.76	12410.69
557.017	12433.69
557.275	12481.69
557.533	12637.69
557.79	12625.69
558.048	12521.69
558.306	12638.69
558.563	12717.69
558.821	12656.69
559.079	12622.69
559.336	12688.69
559.594	12636.69
559.852	12542.69
560.109	12519.69
560.367	12745.69
560.624	12811.69
560.882	12811.69
561.14	12781.69
561.397	12837.69
561.655	12755.69
561.912	12824.69
562.17	12747.69
562.427	12837.69
562.685	12916.69
562.942	12936.69
563.2	12842.69
563.457	12848.69
563.715	12873.69
563.972	12920.69
564.23	12755.69
564.487	12734.69
564.745	12860.69
565.002	12864.69
565.26	12770.69
565.517	12687.69
565.774	12805.69
566.032	12836.69
566.289	12797.69
566.547	12874.69
566.804	12945.69
567.061	12891.69
567.319	12774.69
567.576	12857.69
567.833	12924.69
568.091	12931.69
568.348	12827.69
568.605	12821.69
568.863	12839.69
569.12	12835.69
569.377	12735.69
569.635	12678.69
569.892	12683.69
570.149	12703.69
570.406	12559.69
570.664	12652.69
570.921	12789.69
571.178	12647.69
571.435	12630.69
571.693	12601.69
571.95	12635.69
572.207	12521.69
572.464	12433.69
572.721	12510.69
572.979	12565.69
573.236	12538.69
573.493	12364.69
573.75	12318.69
574.007	12434.69
574.264	12329.69
574.521	12223.69
574.779	12182.69
575.036	12250.69
575.293	12181.69
575.55	12066.69
575.807	12057.69
576.064	12040.69
576.321	12058.69
576.578	11913.69
576.835	11846.69
577.092	12055.69
577.349	11920.69
577.606	11670.69
577.863	11664.69
578.12	11739.69
578.377	11706.69
578.634	11430.69
578.891	11477.69
579.148	11543.69
579.405	11425.69
579.662	11248.69
579.919	11297.69
580.176	11295.69
580.433	11208.69
580.69	11070.69
580.947	11115.69
581.204	11197.69
581.461	11042.69
581.717	10839.69
581.974	10917.69
582.231	10957.69
582.488	10739.69
582.745	10486.69
583.002	10446.69
583.259	10638.69
583.515	10591.69
583.772	10459.69
584.029	10445.69
584.286	10461.69
584.543	10173.69
584.799	10204.69
585.056	10284.69
585.313	10258.69
585.57	10225.69
585.826	10045.69
586.083	10047.69
586.34	10172.69
586.597	9957.69
586.853	9780.69
587.11	9707.69
587.367	9861.69
587.623	9936.69
587.88	9717.69
588.137	9584.69
588.393	9649.69
588.65	9514.69
588.907	9401.69
589.163	9466.69
589.42	9458.69
589.677	9315.69
589.933	9196.69
590.19	9252.69
590.446	9379.69
590.703	9326.69
590.96	9068.69
591.216	9057.69
591.473	9192.69
591.729	9116.69
591.986	8955.69
592.242	9050.69
592.499	9248.69
592.755	9028.69
593.012	8827.69
593.268	8901.69
593.525	8882.69
593.781	8901.69
594.038	8781.69
594.294	8784.69
594.551	8827.69
594.807	8796.69
595.064	8740.69
595.32	8708.69
595.576	8761.69
595.833	8739.69
596.089	8580.69
596.346	8703.69
596.602	8743.69
596.858	8748.69
597.115	8606.69
597.371	8640.69
597.628	8621.69
597.884	8566.69
598.14	8533.69
598.397	8707.69
598.653	8730.69
598.909	8561.69
599.166	8431.69
599.422	8493.69
599.678	8529.69
599.934	8578.69
600.191	8438.69
600.447	8488.69
600.703	8534.69
600.959	8430.69
601.216	8269.69
601.472	8305.69
601.728	8402.69
601.984	8329.69
602.241	8305.69
602.497	8330.69
602.753	8523.69
603.009	8446.69
603.265	8302.69
603.521	8404.69
603.778	8507.69
604.034	8271.69
604.29	8199.69
604.546	8291.69
604.802	8400.69
605.058	8344.69
605.314	8243.69
605.571	8269.69
605.827	8314.69
606.083	8282.69
606.339	8210.69
606.595	8322.69
606.851	8373.69
607.107	8395.69
607.363	8187.69
607.619	8230.69
607.875	8405.69
608.131	8291.69
608.387	8044.69
608.643	8124.69
608.899	8256.69
609.155	8188.69
609.411	8150.69
609.667	8228.69
609.923	8215.69
610.179	8152.69
610.435	7990.69
610.691	8016.69
610.947	8189.69
611.203	8112.69
611.459	8059.69
611.714	8093.69
611.97	8203.69
612.226	8091.69
612.482	7934.69
612.738	8075.69
612.994	8232.69
613.25	8024.69
613.505	7850.69
613.761	7887.69
614.017	7990.69
614.273	8011.69
614.529	7861.69
614.785	7792.69
615.04	7912.69
615.296	7887.69
615.552	7887.69
615.808	7877.69
616.063	7939.69
616.319	7927.69
616.575	7748.69
616.831	7792.69
617.086	7989.69
617.342	7936.69
617.598	7811.69
617.854	7774.69
618.109	7889.69
618.365	7706.69
618.621	7585.69
618.876	7699.69
619.132	7789.69
619.388	7676.69
619.643	7497.69
619.899	7608.69
620.155	7687.69
620.41	7644.69
620.666	7501.69
620.921	7549.69
621.177	7627.69
621.433	7622.69
621.688	7512.69
621.944	7448.69
622.199	7493.69
622.455	7495.69
622.71	7376.69
622.966	7399.69
623.221	7341.69
623.477	7397.69
623.732	7355.69
623.988	7255.69
624.243	7383.69
624.499	7310.69
624.754	7132.69
625.01	7205.69
625.265	7257.69
625.521	7342.69
625.776	7144.69
626.032	7139.69
626.287	7183.69
626.543	7149.69
626.798	7085.69
627.053	7062.69
627.309	7158.69
627.564	7044.69
627.82	7013.69
628.075	7075.69
628.33	6981.69
628.586	6857.69
628.841	6715.69
629.096	6860.69
629.352	6987.69
629.607	6853.69
629.862	6772.69
630.118	6872.69
630.373	6799.69
630.628	6827.69
630.884	6693.69
631.139	6705.69
631.394	6841.69
631.649	6804.69
631.905	6647.69
632.16	6684.69
632.415	6810.69
632.67	6719.69
632.926	6542.69
633.181	6485.69
633.436	6633.69
633.691	6573.69
633.946	6405.69
634.202	6428.69
634.457	6533.69
634.712	6420.69
634.967	6361.69
635.222	6362.69
635.477	6411.69
635.733	6386.69
635.988	6273.69
636.243	6294.69
636.498	6423.69
636.753	6340.69
637.008	6139.69
637.263	6227.69
637.518	6326.69
637.773	6231.69
638.028	6162.69
638.283	6161.69
638.539	6221.69
638.794	6194.69
639.049	6060.69
639.304	6001.69
639.559	6051.69
639.814	6021.69
640.069	5946.69
640.324	5961.69
640.579	6066.69
640.834	6014.69
641.089	5898.69
641.344	5948.69
641.598	6181.69
641.853	6011.69
642.108	5759.69
642.363	5697.69
642.618	5904.69
642.873	5812.69
643.128	5702.69
643.383	5702.69
643.638	5744.69
643.893	5787.69
644.148	5720.69
644.402	5602.69
644.657	5697.69
644.912	5665.69
645.167	5637.69
645.422	5681.69
645.677	5666.69
645.931	5659.69
646.186	5608.69
646.441	5542.69
646.696	5496.69
646.951	5531.69
647.205	5519.69
647.46	5497.69
647.715	5485.69
647.97	5631.69
648.224	5663.69
648.479	5539.69
648.734	5594.69
648.989	5545.69
649.243	5459.69
649.498	5374.69
649.753	5387.69
650.007	5469.69
650.262	5385.69
650.517	5345.69
650.771	5399.69
651.026	5353.69
651.281	5219.69
651.535	5330.69
651.79	5348.69
652.045	5342.69
652.299	5235.69
652.554	5196.69
652.809	5265.69
653.063	5439.69
653.318	5370.69
653.572	5245.69
653.827	5343.69
654.081	5212.69
654.336	5097.69
654.591	5122.69
654.845	5210.69
655.1	5210.69
655.354	5132.69
655.609	5146.69
655.863	5255.69
656.118	5261.69
656.372	5072.69
656.627	5082.69
656.881	5184.69
657.136	5146.69
657.39	5056.69
657.645	5186.69
657.899	5317.69
658.153	5144.69
658.408	5019.69
658.662	5075.69
658.917	5148.69
659.171	5074.69
659.426	4965.69
659.68	4970.69
659.934	5106.69
660.189	5100.69
660.443	4990.69
660.697	5096.69
660.952	5159.69
661.206	5026.69
661.46	4888.69
661.715	4998.69
661.969	5076.69
662.223	5024.69
662.478	4963.69
662.732	5043.69
662.986	5079.69
663.241	5046.69
663.495	4934.69
663.749	5010.69
664.003	5155.69
664.258	5058.69
664.512	4978.69
664.766	4997.69
665.02	5078.69
665.275	5114.69
665.529	4919.69
665.783	4960.69
666.037	5053.69
666.291	5017.69
666.546	4962.69
666.8	5041.69
667.054	4999.69
667.308	5073.69
667.562	4893.69
667.816	4920.69
668.071	5024.69
668.325	4958.69
668.579	4978.69
668.833	5024.69
669.087	5185.69
669.341	5082.69
669.595	4943.69
669.849	5012.69
670.103	5081.69
670.357	5056.69
670.612	5034.69
670.866	5017.69
671.12	5151.69
671.374	5135.69
671.628	5056.69
671.882	5021.69
672.136	5105.69
672.39	5125.69
672.644	4970.69
672.898	5163.69
673.152	5303.69
673.406	5236.69
673.66	5141.69
673.914	5191.69
674.168	5254.69
674.422	5195.69
674.675	5116.69
674.929	5188.69
675.183	5277.69
675.437	5207.69
675.691	5153.69
675.945	5276.69
676.199	5391.69
676.453	5281.69
676.707	5100.69
676.961	5146.69
677.214	5279.69
677.468	5283.69
677.722	5327.69
677.976	5320.69
678.23	5371.69
678.484	5313.69
678.737	5170.69
678.991	5282.69
679.245	5383.69
679.499	5343.69
679.753	5270.69
680.006	5325.69
680.26	5476.69
680.514	5496.69
680.768	5317.69
681.021	5402.69
681.275	5465.69
681.529	5426.69
681.783	5306.69
682.036	5396.69
682.29	5368.69
682.544	5402.69
682.797	5375.69
683.051	5345.69
683.305	5422.69
683.559	5508.69
683.812	5511.69
684.066	5519.69
684.32	5610.69
684.573	5577.69
684.827	5565.69
685.08	5572.69
685.334	5685.69
685.588	5611.69
685.841	5439.69
686.095	5631.69
686.348	5666.69
686.602	5601.69
686.856	5599.69
687.109	5560.69
687.363	5642.69
687.616	5592.69
687.87	5406.69
688.123	5545.69
688.377	5653.69
688.63	5653.69
688.884	5607.69
689.137	5704.69
689.391	5776.69
689.644	5625.69
689.898	5509.69
690.151	5591.69
690.405	5695.69
690.658	5658.69
690.912	5602.69
691.165	5586.69
691.419	5673.69
691.672	5676.69
691.926	5631.69
692.179	5652.69
692.432	5749.69
692.686	5694.69
692.939	5609.69
693.193	5666.69
693.446	5786.69
693.699	5782.69
693.953	5769.69
694.206	5726.69
694.459	5849.69
694.713	5864.69
694.966	5670.69
695.219	5724.69
695.473	5781.69
695.726	5701.69
695.979	5659.69
696.233	5773.69
696.486	5823.69
696.739	5803.69
696.992	5701.69
697.246	5788.69
697.499	5868.69
697.752	5710.69
698.006	5643.69
698.259	5772.69
698.512	5780.69
698.765	5762.69
699.018	5641.69
699.272	5743.69
699.525	5780.69
699.778	5702.69
700.031	5665.69
700.284	5701.69
700.538	5785.69
700.791	5733.69
701.044	5695.69
701.297	5737.69
701.55	5745.69
701.803	5703.69
702.056	5586.69
702.31	5673.69
702.563	5734.69
702.816	5631.69
703.069	5511.69
703.322	5607.69
703.575	5667.69
703.828	5684.69
704.081	5622.69
704.334	5583.69
704.587	5614.69
704.84	5617.69
705.093	5613.69
705.346	5726.69
705.599	5730.69
705.853	5708.69
706.106	5740.69
706.359	5999.69
706.612	5722.69
706.865	5757.69
707.118	5611.69
707.37	5649.69
707.623	5758.69
707.876	5712.69
708.129	5665.69
708.382	5755.69
708.635	5823.69
708.888	5626.69
709.141	5476.69
709.394	5578.69
709.647	5679.69
709.9	5536.69
710.153	5408.69
710.406	5550.69
710.658	5677.69
710.911	5573.69
711.164	5445.69
711.417	5461.69
711.67	5550.69
711.923	5644.69
712.176	5487.69
712.428	5466.69
712.681	5512.69
712.934	5536.69
713.187	5420.69
713.44	5405.69
713.692	5536.69
713.945	5441.69
714.198	5336.69
714.451	5321.69
714.704	5501.69
714.956	5510.69
715.209	5477.69
715.462	5451.69
715.715	5485.69
715.967	5436.69
716.22	5281.69
716.473	5286.69
716.725	5471.69
716.978	5449.69
717.231	5398.69
717.484	5398.69
717.736	5328.69
717.989	5255.69
718.242	5195.69
718.494	5264.69
718.747	5358.69
718.999	5293.69
719.252	5262.69
719.505	5233.69
719.757	5242.69
720.01	5197.69
720.263	5204.69
720.515	5217.69
720.768	5254.69
721.02	5231.69
721.273	5111.69
721.525	5043.69
721.778	5093.69
722.031	5171.69
722.283	5052.69
722.536	5061.69
722.788	5146.69
723.041	5077.69
723.293	5011.69
723.546	5000.69
723.798	5112.69
724.051	5146.69
724.303	5087.69
724.556	5085.69
724.808	5159.69
725.061	5075.69
725.313	4965.69
725.566	4941.69
725.818	4973.69
726.071	4987.69
726.323	4781.69
726.575	4844.69
726.828	4987.69
727.08	4979.69
727.333	4832.69
727.585	4848.69
727.837	4972.69
728.09	4897.69
728.342	4730.69
728.595	4858.69
728.847	5026.69
729.099	4772.69
729.352	4744.69
729.604	4743.69
729.856	4830.69
730.109	4817.69
730.361	4715.69
730.613	4767.69
730.866	4847.69
731.118	4714.69
731.37	4662.69
731.622	4638.69
731.875	4723.69
732.127	4798.69
732.379	4746.69
732.631	4776.69
732.884	4733.69
733.136	4677.69
733.388	4580.69
733.64	4598.69
733.893	4750.69
734.145	4638.69
734.397	4472.69
734.649	4483.69
734.901	4595.69
735.154	4501.69
735.406	4453.69
735.658	4509.69
735.91	4590.69
736.162	4530.69
736.414	4369.69
736.667	4465.69
736.919	4501.69
737.171	4412.69
737.423	4402.69
737.675	4401.69
737.927	4451.69
738.179	4385.69
738.431	4335.69
738.684	4318.69
738.936	4397.69
739.188	4450.69
739.44	4262.69
739.692	4266.69
739.944	4283.69
740.196	4307.69
740.448	4198.69
740.7	4202.69
740.952	4274.69
741.204	4262.69
741.456	4145.69
741.708	4203.69
741.96	4251.69
742.212	4284.69
742.464	4263.69
742.716	4133.69
742.968	4221.69
743.22	4183.69
743.472	4088.69
743.724	4170.69
743.976	4265.69
744.228	4243.69
744.48	4026.69
744.732	4049.69
744.983	4181.69
745.235	4154.69
745.487	4072.69
745.739	4113.69
745.991	4082.69
746.243	4133.69
746.495	4003.69
746.747	4015.69
746.999	4123.69
747.25	4125.69
747.502	4053.69
747.754	4133.69
748.006	4066.69
748.258	4169.69
748.51	4180.69
748.761	4004.69
749.013	4075.69
749.265	4158.69
749.517	4086.69
749.768	4162.69
750.02	4177.69
750.272	4076.69
750.524	3887.69
750.776	3865.69
751.027	4078.69
751.279	4106.69
751.531	3894.69
751.782	3974.69
752.034	4085.69
752.286	3971.69
752.538	3836.69
752.789	3910.69
753.041	3976.69
753.293	3941.69
753.544	3834.69
753.796	3881.69
754.048	3973.69
754.299	3939.69
754.551	3873.69
754.803	3818.69
755.054	3891.69
755.306	3932.69
755.558	3768.69
755.809	3815.69
756.061	3976.69
756.312	3851.69
756.564	3805.69
756.816	3852.69
757.067	3778.69
757.319	3780.69
757.57	3738.69
757.822	3817.69
758.073	3898.69
758.325	3814.69
758.577	3718.69
758.828	3734.69
759.08	3897.69
759.331	3855.69
759.583	3667.69
759.834	3720.69
760.086	3668.69
760.337	3666.69
760.589	3622.69
760.84	3615.69
761.092	3727.69
761.343	3699.69
761.595	3540.69
761.846	3639.69
762.097	3686.69
762.349	3642.69
762.6	3467.69
762.852	3605.69
763.103	3779.69
763.355	3621.69
763.606	3523.69
763.857	3639.69
764.109	3707.69
764.36	3599.69
764.612	3546.69
764.863	3627.69
765.114	3625.69
765.366	3508.69
765.617	3389.69
765.868	3429.69
766.12	3598.69
766.371	3565.69
766.622	3331.69
766.874	3439.69
767.125	3595.69
767.376	3478.69
767.628	3376.69
767.879	3451.69
768.13	3524.69
768.381	3493.69
768.633	3421.69
768.884	3448.69
769.135	3573.69
769.386	3545.69
769.638	3463.69
769.889	3437.69
770.14	3462.69
770.391	3376.69
770.643	3302.69
770.894	3258.69
771.145	3408.69
771.396	3321.69
771.647	3206.69
771.899	3369.69
772.15	3439.69
772.401	3357.69
772.652	3200.69
772.903	3202.69
773.154	3559.69
773.406	3840.69
773.657	3279.69
773.908	3258.69
774.159	3335.69
774.41	3358.69
774.661	3219.69
774.912	3212.69
775.163	3391.69
775.414	3372.69
775.666	3095.69
775.917	3114.69
776.168	3188.69
776.419	3197.69
776.67	3116.69
776.921	3134.69
777.172	3200.69
777.423	3238.69
777.674	3266.69
777.925	3231.69
778.176	3147.69
778.427	3151.69
778.678	3059.69
778.929	3051.69
779.18	3170.69
779.431	3057.69
779.682	3035.69
779.933	3081.69
780.184	3104.69
780.435	3093.69
780.686	3005.69
780.937	3077.69
781.188	3135.69
781.439	3221.69
781.69	3132.69
781.941	3099.69
782.191	3101.69
782.442	3056.69
782.693	2980.69
782.944	2968.69
783.195	3062.69
783.446	3070.69
783.697	3065.69
783.948	2974.69
784.199	2981.69
784.449	2932.69
784.7	2934.69
784.951	2975.69
785.202	3107.69
785.453	3058.69
785.704	2879.69
785.954	2846.69
786.205	2896.69
786.456	2857.69
786.707	2800.69
786.958	2853.69
787.208	2954.69
787.459	2870.69
787.71	2843.69
787.961	2834.69
788.211	2899.69
788.462	2870.69
788.713	2789.69
788.964	2828.69
789.214	2926.69
789.465	2895.69
789.716	2827.69
789.967	2834.69
790.217	2834.69
790.468	2780.69
790.719	2727.69
790.969	2741.69
791.22	2784.69
791.471	2848.69
791.721	2873.69
791.972	2751.69
792.223	2810.69
792.473	2702.69
792.724	2686.69
792.975	2694.69
793.225	2785.69
793.476	2737.69
793.726	2683.69
793.977	2773.69
794.228	2896.69
794.478	2757.69
794.729	2640.69
794.979	2728.69
795.23	2774.69
795.481	2688.69
795.731	2555.69
795.982	2658.69
796.232	2689.69
796.483	2635.69
796.733	2587.69
796.984	2637.69
797.234	2687.69
797.485	2705.69
797.735	2530.69
797.986	2596.69
798.236	2691.69
798.487	2567.69
798.737	2557.69
798.988	2672.69
799.238	2695.69
799.489	2587.69
799.739	2463.69
799.99	2546.69
800.24	2669.69
800.491	2725.69
800.741	2575.69
800.991	2474.69
801.242	2523.69
801.492	2574.69
801.743	2505.69
801.993	2732.69
802.244	2958.69
802.494	2562.69
802.744	2503.69
802.995	2539.69
803.245	2546.69
803.495	2533.69
803.746	2481.69
803.996	2537.69
804.246	2521.69
804.497	2513.69
804.747	2391.69
804.997	2473.69
805.248	2490.69
805.498	2443.69
805.748	2461.69
805.999	2377.69
806.249	2403.69
806.499	2383.69
806.75	2333.69
807	2353.69
807.25	2444.69
807.5	2388.69
807.751	2399.69
808.001	2476.69
808.251	2464.69
808.501	2519.69
808.752	2488.69
809.002	2426.69
809.252	2421.69
809.502	2359.69
809.752	2293.69
810.003	2248.69
810.253	2334.69
810.503	2385.69
810.753	2443.69
811.003	2455.69
811.254	2444.69
811.504	2381.69
811.754	2354.69
812.004	2355.69
812.254	2564.69
812.504	2395.69
812.754	2296.69
813.005	2382.69
813.255	2470.69
813.505	2381.69
813.755	2253.69
814.005	2320.69
814.255	2349.69
814.505	2305.69
814.755	2202.69
815.005	2225.69
815.255	2355.69
815.505	2308.69
815.756	2316.69
816.006	2298.69
816.256	2205.69
816.506	2174.69
816.756	2123.69
817.006	2145.69
817.256	2265.69
817.506	2265.69
817.756	2202.69
818.006	2215.69
818.256	2223.69
818.506	2217.69
818.756	2125.69
819.006	2183.69
819.256	2266.69
819.506	2152.69
819.756	2111.69
820.006	2224.69
820.255	2256.69
820.505	2238.69
820.755	2114.69
821.005	2142.69
821.255	2263.69
821.505	2182.69
821.755	2105.69
822.005	2194.69
822.255	2284.69
822.505	2190.69
822.755	2236.69
823.004	2070.69
823.254	2075.69
823.504	2146.69
823.754	2146.69
824.004	2051.69
824.254	2156.69
824.504	2163.69
824.753	2204.69
825.003	2198.69
825.253	2226.69
825.503	2113.69
825.753	2044.69
826.002	2128.69
826.252	2349.69
826.502	2146.69
826.752	2034.69
827.002	2046.69
827.251	2134.69
827.501	2072.69
827.751	1983.69
828.001	2006.69
828.25	2137.69
828.5	2005.69
828.75	1993.69
829	2078.69
829.249	2189.69
829.499	2022.69
829.749	1997.69
829.998	2060.69
830.248	2078.69
830.498	1973.69
830.748	1999.69
830.997	2058.69
831.247	2127.69
831.497	2120.69
831.746	2030.69
831.996	2101.69
832.246	2197.69
832.495	2198.69
832.745	1934.69
832.994	1957.69
833.244	2077.69
833.494	1955.69
833.743	1884.69
833.993	1958.69
834.243	2029.69
834.492	2030.69
834.742	1985.69
834.991	1954.69
835.241	2123.69
835.49	1979.69
835.74	1848.69
835.99	1930.69
836.239	2039.69
836.489	2055.69
836.738	1947.69
836.988	1829.69
837.237	1963.69
837.487	2076.69
837.736	1924.69
837.986	1887.69
838.235	1970.69
838.485	1938.69
838.734	1889.69
838.984	1945.69
839.233	1944.69
839.483	1842.69
839.732	1797.69
839.982	1912.69
840.231	1971.69
840.481	1940.69
840.73	1835.69
840.979	1891.69
841.229	1912.69
841.478	1868.69
841.728	1744.69
841.977	1751.69
842.227	1779.69
842.476	1735.69
842.725	1728.69
842.975	1776.69
843.224	1863.69
843.474	1934.69
843.723	1817.69
843.972	1807.69
844.222	1838.69
844.471	1872.69
844.72	1761.69
844.97	1792.69
845.219	1882.69
845.468	1855.69
845.718	1777.69
845.967	1770.69
846.216	1841.69
846.466	1879.69
846.715	1713.69
846.964	1751.69
847.214	1766.69
847.463	1733.69
847.712	1755.69
847.961	1686.69
848.211	1776.69
848.46	1777.69
848.709	1706.69
848.958	1673.69
849.208	1732.69
849.457	1702.69
849.706	1693.69
849.955	1706.69
850.205	1690.69
850.454	1817.69
850.703	1861.69
850.952	1781.69
851.201	1799.69
851.451	1701.69
851.7	1707.69
851.949	1614.69
852.198	1697.69
852.447	1670.69
852.696	1586.69
852.946	1620.69
853.195	1723.69
853.444	1739.69
853.693	1531.69
853.942	1539.69
854.191	1675.69
854.44	1702.69
854.689	1605.69
854.939	1555.69
855.188	1556.69
855.437	1584.69
855.686	1562.69
855.935	1592.69
856.184	1645.69
856.433	1701.69
856.682	1626.69
856.931	1592.69
857.18	1603.69
857.429	1509.69
857.678	1483.69
857.927	1564.69
858.176	1580.69
858.425	1526.69
858.674	1454.69
858.924	1510.69
859.173	1531.69
859.422	1547.69
859.671	1425.69
859.92	1497.69
860.169	1513.69
860.417	1550.69
860.666	1519.69
860.915	1454.69
861.164	1486.69
861.413	1418.69
861.662	1353.69
861.911	1423.69
862.16	1540.69
862.409	1497.69
862.658	1365.69
862.907	1401.69
863.156	1493.69
863.405	1508.69
863.654	1399.69
863.903	1348.69
864.151	1418.69
864.4	1463.69
864.649	1398.69
864.898	1469.69
865.147	1513.69
865.396	1524.69
865.645	1365.69
865.894	1382.69
866.142	1532.69
866.391	1461.69
866.64	1350.69
866.889	1421.69
867.138	1557.69
867.387	1445.69
867.635	1334.69
867.884	1420.69
868.133	1491.69
868.382	1415.69
868.631	1272.69
868.879	1294.69
869.128	1438.69
869.377	1415.69
869.626	1334.69
869.874	1338.69
870.123	1412.69
870.372	1364.69
870.621	1253.69
870.869	1283.69
871.118	1382.69
871.367	1371.69
871.616	1264.69
871.864	1361.69
872.113	1393.69
872.362	1377.69
872.61	1288.69
872.859	1331.69
873.108	1374.69
873.357	1304.69
873.605	1207.69
873.854	1217.69
874.103	1244.69
874.351	1264.69
874.6	1253.69
874.848	1277.69
875.097	1317.69
875.346	1328.69
875.594	1209.69
875.843	1298.69
876.092	1451.69
876.34	1330.69
876.589	1216.69
876.837	1129.69
877.086	1214.69
877.335	1285.69
877.583	1244.69
877.832	1259.69
878.08	1370.69
878.329	1267.69
878.578	1170.69
878.826	1200.69
879.075	1296.69
879.323	1271.69
879.572	1189.69
879.82	1312.69
880.069	1269.69
880.317	1279.69
880.566	1158.69
880.814	1242.69
881.063	1368.69
881.311	1241.69
881.56	1250.69
881.808	1185.69
882.057	1226.69
882.305	1214.69
882.554	1235.69
882.802	1149.69
883.051	1153.69
883.299	1140.69
883.548	1104.69
883.796	1217.69
884.045	1193.69
884.293	1131.69
884.541	1014.69
884.79	1014.69
885.038	1125.69
885.287	1122.69
885.535	1147.69
885.783	1158.69
886.032	1110.69
886.28	1065.69
886.529	1022.69
886.777	1081.69
887.025	1234.69
887.274	1106.69
887.522	1078.69
887.77	1084.69
888.019	1069.69
888.267	1050.69
888.516	976.69
888.764	993.69
889.012	1077.69
889.261	1068.69
889.509	973.69
889.757	995.69
890.005	1039.69
890.254	1001.69
890.502	1034.69
890.75	1227.69
890.999	1225.69
891.247	1120.69
891.495	1078.69
891.743	1055.69
891.992	1186.69
892.24	1102.69
892.488	961.69
892.737	965.69
892.985	1065.69
893.233	1054.69
893.481	969.69
893.729	948.69
893.978	1129.69
894.226	1153.69
894.474	968.69
894.722	954.69
894.97	995.69
895.219	970.69
895.467	975.69
895.715	1022.69
895.963	1013.69
896.211	975.69
896.46	878.69
896.708	966.69
896.956	1068.69
897.204	1132.69
897.452	1036.69
897.7	962.69
897.948	1035.69
898.197	968.69
898.445	901.69
898.693	943.69
898.941	995.69
899.189	989.69
899.437	957.69
899.685	1021.69
899.933	975.69
900.181	968.69
900.43	897.69
900.678	905.69
900.926	961.69
901.174	926.69
901.422	871.69
901.67	905.69
901.918	985.69
902.166	933.69
902.414	789.69
902.662	828.69
902.91	941.69
903.158	924.69
903.406	859.69
903.654	880.69
903.902	895.69
904.15	896.69
904.398	803.69
904.646	887.69
904.894	972.69
905.142	960.69
905.39	897.69
905.638	822.69
905.886	859.69
906.134	862.69
906.382	841.69
906.63	790.69
906.878	877.69
907.126	863.69
907.374	781.69
907.622	804.69
907.869	920.69
908.117	879.69
908.365	831.69
908.613	797.69
908.861	802.69
909.109	774.69
909.357	730.69
909.605	815.69
909.853	886.69
910.1	803.69
910.348	666.69
910.596	709.69
910.844	869.69
911.092	919.69
911.34	802.69
911.588	819.69
911.835	851.69
912.083	804.69
912.331	782.69
912.579	824.69
912.827	1011.69
913.075	864.69
913.322	725.69
913.57	743.69
913.818	886.69
914.066	805.69
914.313	711.69
914.561	785.69
914.809	818.69
915.057	774.69
915.305	752.69
915.552	713.69
915.8	822.69
916.048	742.69
916.296	658.69
916.543	767.69
916.791	866.69
917.039	793.69
917.286	651.69
917.534	653.69
917.782	781.69
918.03	723.69
918.277	622.69
918.525	594.69
918.773	709.69
919.02	704.69
919.268	647.69
919.516	681.69
919.763	697.69
920.011	675.69
920.259	577.69
920.506	695.69
920.754	789.69
921.002	770.69
921.249	713.69
921.497	680.69
921.745	701.69
921.992	710.69
922.24	577.69
922.487	713.69
922.735	865.69
922.983	766.69
923.23	690.69
923.478	669.69
923.725	732.69
923.973	721.69
924.221	677.69
924.468	730.69
924.716	720.69
924.963	688.69
925.211	630.69
925.458	684.69
925.706	796.69
925.953	824.69
926.201	638.69
926.448	610.69
926.696	710.69
926.944	687.69
927.191	610.69
927.439	614.69
927.686	632.69
927.934	649.69
928.181	554.69
928.429	538.69
928.676	625.69
928.923	558.69
929.171	513.69
929.418	641.69
929.666	690.69
929.913	686.69
930.161	489.69
930.408	513.69
930.656	599.69
930.903	650.69
931.151	517.69
931.398	542.69
931.645	653.69
931.893	539.69
932.14	513.69
932.388	557.69
932.635	701.69
932.882	724.69
933.13	596.69
933.377	535.69
933.625	606.69
933.872	532.69
934.119	471.69
934.367	534.69
934.614	507.69
934.861	491.69
935.109	510.69
935.356	553.69
935.603	603.69
935.851	559.69
936.098	507.69
936.345	617.69
936.593	622.69
936.84	543.69
937.087	405.69
937.335	488.69
937.582	560.69
937.829	568.69
938.077	514.69
938.324	515.69
938.571	582.69
938.818	512.69
939.066	465.69
939.313	445.69
939.56	559.69
939.807	556.69
940.055	429.69
940.302	462.69
940.549	641.69
940.796	571.69
941.044	506.69
941.291	517.69
941.538	642.69
941.785	537.69
942.033	485.69
942.28	556.69
942.527	583.69
942.774	545.69
943.021	401.69
943.269	442.69
943.516	548.69
943.763	557.69
944.01	483.69
944.257	542.69
944.504	596.69
944.752	562.69
944.999	518.69
945.246	446.69
945.493	519.69
945.74	499.69
945.987	413.69
946.234	497.69
946.482	569.69
946.729	449.69
946.976	399.69
947.223	440.69
947.47	578.69
947.717	520.69
947.964	535.69
948.211	500.69
948.458	546.69
948.705	488.69
948.952	399.69
949.2	451.69
949.447	583.69
949.694	592.69
949.941	425.69
950.188	399.69
950.435	428.69
950.682	469.69
950.929	359.69
951.176	403.69
951.423	548.69
951.67	526.69
951.917	473.69
952.164	457.69
952.411	516.69
952.658	585.69
952.905	427.69
953.152	381.69
953.399	501.69
953.646	474.69
953.893	358.69
954.14	399.69
954.387	426.69
954.634	432.69
954.881	369.69
955.128	406.69
955.375	422.69
955.622	431.69
955.869	434.69
956.115	416.69
956.362	491.69
956.609	450.69
956.856	373.69
957.103	381.69
957.35	476.69
957.597	471.69
957.844	382.69
958.091	371.69
958.338	461.69
958.585	396.69
958.831	230.69
959.078	310.69
959.325	472.69
959.572	374.69
959.819	288.69
960.066	259.69
960.313	392.69
960.559	386.69
960.806	258.69
961.053	298.69
961.3	458.69
961.547	488.69
961.794	276.69
962.04	422.69
962.287	451.69
962.534	322.69
962.781	305.69
963.028	382.69
963.274	471.69
963.521	383.69
963.768	309.69
964.015	340.69
964.262	486.69
964.508	343.69
964.755	255.69
965.002	279.69
965.249	319.69
965.495	273.69
965.742	242.69
965.989	263.69
966.236	395.69
966.482	319.69
966.729	259.69
966.976	254.69
967.222	325.69
967.469	325.69
967.716	230.69
967.963	248.69
968.209	340.69
968.456	291.69
968.703	206.69
968.949	294.69
969.196	449.69
969.443	456.69
969.689	216.69
969.936	214.69
970.183	306.69
970.429	253.69
970.676	222.69
970.923	297.69
971.169	365.69
971.416	275.69
971.663	221.69
971.909	261.69
972.156	343.69
972.402	329.69
972.649	258.69
972.896	286.69
973.142	325.69
973.389	347.69
973.635	245.69
973.882	348.69
974.129	417.69
974.375	304.69
974.622	199.69
974.868	206.69
975.115	289.69
975.361	248.69
975.608	214.69
975.855	334.69
976.101	366.69
976.348	278.69
976.594	206.69
976.841	265.69
977.087	275.69
977.334	317.69
977.58	181.69
977.827	187.69
978.073	329.69
978.32	292.69
978.566	158.69
978.813	242.69
979.059	269.69
979.306	247.69
979.552	165.69
979.799	235.69
980.045	230.69
980.292	222.69
980.538	155.69
980.785	143.69
981.031	194.69
981.278	184.69
981.524	131.69
981.771	272.69
982.017	410.69
982.263	329.69
982.51	167.69
982.756	237.69
983.003	293.69
983.249	238.69
983.495	147.69
983.742	131.69
983.988	202.69
984.235	233.69
984.481	158.69
984.727	148.69
984.974	254.69
985.22	255.69
985.467	179.69
985.713	175.69
985.959	291.69
986.206	281.69
986.452	201.69
986.698	219.69
986.945	230.69
987.191	279.69
987.437	281.69
987.684	233.69
987.93	378.69
988.176	295.69
988.423	103.69
988.669	181.69
988.915	362.69
989.162	204.69
989.408	83.69
989.654	151.69
989.901	190.69
990.147	178.69
990.393	197.69
990.639	270.69
990.886	277.69
991.132	322.69
991.378	261.69
991.625	379.69
991.871	351.69
992.117	264.69
992.363	211.69
992.61	225.69
992.856	327.69
993.102	191.69
993.348	144.69
993.594	161.69
993.841	189.69
994.087	317.69
994.333	209.69
994.579	174.69
994.826	214.69
995.072	230.69
995.318	42.69
995.564	110.69
995.81	236.69
996.057	177.69
996.303	66.69
996.549	112.69
996.795	197.69
997.041	175.69
997.287	145.69
997.534	150.69
997.78	189.69
998.026	198.69
998.272	95.69
998.518	88.69
998.764	242.69
999.01	263.69
999.256	157.69
999.503	136.69
999.749	147.69
999.995	109.69
1000.241	92.69
1000.487	158.69
1000.733	198.69
1000.979	167.69
1001.225	152.69
1001.471	210.69
1001.718	251.69
1001.964	286.69
1002.21	111.69
1002.456	136.69
1002.702	279.69
1002.948	197.69
1003.194	127.69
1003.44	88.69
1003.686	171.69
1003.932	139.69
1004.178	89.69
1004.424	165.69
1004.67	286.69
1004.916	255.69
1005.162	145.69
1005.408	106.69
1005.654	246.69
1005.9	77.69
1006.146	31.69
1006.392	107.69
1006.638	189.69
1006.884	162.69
1007.13	79.69
1007.376	45.69
1007.622	216.69
1007.868	231.69
1008.114	107.69
1008.36	168.69
1008.606	205.69
1008.852	208.69
1009.098	164.69
1009.344	197.69
1009.59	176.69
1009.836	51.69
1010.082	-20.31
1010.328	83.69
1010.574	162.69
1010.82	70.69
1011.065	1.69
1011.311	10.69
1011.557	120.69
1011.803	106.69
1012.049	35.69
1012.295	75.69
1012.541	130.69
1012.787	122.69
1013.033	-14.31
1013.278	-29.31
1013.524	138.69
1013.77	201.69
1014.016	91.69
1014.262	89.69
1014.508	208.69
1014.754	47.69
1015	3.69
1015.245	168.69
1015.491	198.69
1015.737	153.69
1015.983	15.69
1016.229	2.69
1016.475	117.69
1016.72	231.69
1016.966	255.69
1017.212	133.69
1017.458	208.69
1017.704	135.69
1017.949	-10.31
1018.195	148.69
1018.441	256.69
1018.687	216.69
1018.933	59.69
1019.178	39.69
1019.424	207.69
1019.67	224.69
1019.916	17.69
1020.161	58.69
1020.407	132.69
1020.653	63.69
1020.899	-25.31
1021.144	46.69
1021.39	134.69
1021.636	37.69
1021.882	-54.31
1022.127	68.69
1022.373	231.69
1022.619	165.69
1022.865	46.69
1023.11	39.69
1023.356	170.69
1023.602	99.69
1023.847	40.69
1024.093	102.69
1024.339	72.69
1024.584	58.69
1024.83	46.69
1025.076	28.69
1025.321	159.69
1025.567	132.69
1025.813	12.69
1026.058	86.69
1026.304	159.69
1026.55	72.69
1026.795	62.69
1027.041	58.69
1027.287	117.69
1027.532	117.69
1027.778	74.69
1028.024	66.69
1028.269	111.69
1028.515	21.69
1028.76	-37.31
1029.006	42.69
1029.252	149.69
1029.497	77.69
1029.743	59.69
1029.989	-5.31
1030.234	136.69
1030.48	186.69
1030.725	-14.31
1030.971	35.69
1031.216	185.69
1031.462	90.69
1031.708	-60.31
1031.953	-13.31
1032.199	70.69
1032.444	78.69
1032.69	16.69
1032.935	7.69
1033.181	148.69
1033.426	29.69
1033.672	-129.31
1033.918	-61.31
1034.163	57.69
1034.409	27.69
1034.654	-7.31
1034.9	121.69
1035.145	137.69
1035.391	48.69
1035.636	-57.31
1035.882	23.69
1036.127	18.69
1036.373	-12.31
1036.618	-116.31
1036.864	-11.31
1037.109	127.69
1037.355	32.69
1037.6	-30.31
1037.845	-12.31
1038.091	203.69
1038.336	148.69
1038.582	145.69
1038.827	251.69
1039.073	82.69
1039.318	-5.31
1039.564	-95.31
1039.809	-21.31
1040.055	134.69
1040.3	126.69
1040.545	-24.31
1040.791	-31.31
1041.036	42.69
1041.282	80.69
1041.527	130.69
1041.772	-52.31
1042.018	10.69
1042.263	62.69
1042.509	-85.31
1042.754	-48.31
1042.999	70.69
1043.245	39.69
1043.49	-128.31
1043.736	-61.31
1043.981	32.69
1044.226	56.69
1044.472	30.69
1044.717	34.69
1044.962	137.69
1045.208	41.69
1045.453	-180.31
1045.698	-105.31
1045.944	99.69
1046.189	56.69
1046.434	-50.31
1046.68	-23.31
1046.925	147.69
1047.17	19.69
1047.416	-165.31
1047.661	-66.31
1047.906	79.69
1048.152	59.69
1048.397	-28.31
1048.642	-47.31
1048.887	159.69
1049.133	158.69
1049.378	-28.31
1049.623	-33.31
1049.869	84.69
1050.114	-3.31
1050.359	-83.31
1050.604	5.69
1050.85	170.69
1051.095	23.69
1051.34	-80.31
1051.585	-6.31
1051.831	177.69
1052.076	22.69
1052.321	-182.31
1052.566	-67.31
1052.812	122.69
1053.057	26.69
1053.302	-33.31
1053.547	54.69
1053.792	113.69
1054.038	88.69
1054.283	-98.31
1054.528	-30.31
1054.773	39.69
1055.018	31.69
1055.264	-86.31
1055.509	-102.31
1055.754	31.69
1055.999	-40.31
1056.244	-132.31
1056.49	-49.31
1056.735	49.69
1056.98	-16.31
1057.225	-106.31
1057.47	83.69
1057.715	14.69
1057.96	-76.31
1058.206	-118.31
1058.451	-1.31
1058.696	106.69
1058.941	61.69
1059.186	-121.31
1059.431	-94.31
1059.676	102.69
1059.922	51.69
1060.167	136.69
1060.412	293.69
1060.657	78.69
1060.902	37.69
1061.147	-149.31
1061.392	-82.31
1061.637	75.69
1061.882	-12.31
1062.127	-164.31
1062.373	-145.31
1062.618	127.69
1062.863	139.69
1063.108	-56.31
1063.353	-122.31
1063.598	-23.31
1063.843	-26.31
1064.088	-111.31
1064.333	-114.31
1064.578	39.69
1064.823	58.69
1065.068	-161.31
1065.313	-96.31
1065.558	66.69
1065.803	70.69
1066.048	-132.31
1066.293	-118.31
1066.538	103.69
1066.783	11.69
1067.028	-163.31
1067.273	-132.31
1067.518	47.69
1067.763	-22.31
1068.008	-163.31
1068.253	-91.31
1068.498	73.69
1068.743	10.69
1068.988	-140.31
1069.233	-131.31
1069.478	79.69
1069.723	133.69
1069.968	-64.31
1070.213	-8.31
1070.458	97.69
1070.703	-2.31
1070.948	-162.31
1071.193	-63.31
1071.438	56.69
1071.683	90.69
1071.928	-41.31
1072.173	-45.31
1072.418	26.69
1072.663	-42.31
1072.908	-165.31
1073.152	-86.31
1073.397	81.69
1073.642	-26.31
1073.887	-82.31
1074.132	38.69
1074.377	30.69
1074.622	2.69
1074.867	-117.31
1075.112	-49.31
1075.357	145.69
1075.601	-9.31
1075.846	-69.31
1076.091	25.69
1076.336	77.69
1076.581	-54.31
1076.826	-166.31
1077.071	-71.31
1077.315	185.69
1077.56	121.69
1077.805	-98.31
1078.05	-68.31
1078.295	-16.31
1078.54	-48.31
1078.785	-158.31
1079.029	-108.31
1079.274	68.69
1079.519	-62.31
1079.764	-159.31
1080.009	-40.31
1080.253	22.69
1080.498	-62.31
1080.743	-200.31
1080.988	-52.31
1081.233	157.69
1081.478	84.69
1081.722	-123.31
1081.967	-0.31
1082.212	141.69
1082.457	21.69
1082.701	-108.31
1082.946	-74.31
1083.191	53.69
1083.436	-57.31
1083.681	-195.31
1083.925	-103.31
1084.17	-2.31
1084.415	17.69
1084.66	-185.31
1084.904	-83.31
1085.149	-2.31
1085.394	-40.31
1085.639	-194.31
1085.883	-101.31
1086.128	147.69
1086.373	158.69
1086.617	-81.31
1086.862	-132.31
1087.107	-13.31
1087.352	-63.31
1087.596	-165.31
1087.841	-24.31
1088.086	35.69
1088.33	8.69
1088.575	-236.31
1088.82	-95.31
1089.064	85.69
1089.309	-70.31
1089.554	-192.31
1089.798	-157.31
1090.043	44.69
1090.288	-11.31
1090.533	-201.31
1090.777	-122.31
1091.022	18.69
1091.266	38.69
1091.511	-125.31
1091.756	-54.31
1092	102.69
1092.245	83.69
1092.49	-148.31
1092.734	-103.31
1092.979	89.69
1093.224	-20.31
1093.468	-169.31
1093.713	-115.31
1093.957	17.69
1094.202	-46.31
1094.447	-218.31
1094.691	-101.31
1094.936	46.69
1095.181	12.69
1095.425	-173.31
1095.67	-146.31
1095.914	31.69
1096.159	-0.31
1096.403	-159.31
1096.648	-59.31
1096.893	59.69
1097.137	-69.31
1097.382	-218.31
1097.626	-149.31
1097.871	16.69
1098.115	-44.31
1098.36	-206.31
1098.605	-97.31
1098.849	-43.31
1099.094	-114.31
1099.338	-193.31
1099.583	-101.31
1099.827	125.69
1100.072	50.69
1100.316	-154.31
1100.561	-108.31
1100.805	49.69
1101.05	16.69
1101.294	-178.31
1101.539	-168.31
1101.783	-9.31
1102.028	-4.31
1102.273	-147.31
1102.517	-68.31
1102.761	58.69
1103.006	-74.31
1103.25	-277.31
1103.495	-162.31
1103.739	54.69
1103.984	121.69
1104.228	-81.31
1104.473	-33.31
1104.717	28.69
1104.962	-0.31
1105.206	-112.31
1105.451	-144.31
1105.695	29.69
1105.94	-9.31
1106.184	-148.31
1106.429	-94.31
1106.673	20.69
1106.917	71.69
1107.162	-154.31
1107.406	-30.31
1107.651	133.69
1107.895	-91.31
1108.14	-207.31
1108.384	-113.31
1108.628	93.69
1108.873	102.69
1109.117	-143.31
1109.362	-122.31
1109.606	-35.31
1109.85	-10.31
1110.095	-155.31
1110.339	-85.31
1110.584	94.69
1110.828	41.69
1111.072	-89.31
1111.317	-119.31
1111.561	-18.31
1111.806	-41.31
1112.05	-184.31
1112.294	-86.31
1112.539	30.69
1112.783	-12.31
1113.027	-129.31
1113.272	-122.31
1113.516	-22.31
1113.76	-55.31
1114.005	-155.31
1114.249	-96.31
1114.493	66.69
1114.738	95.69
1114.982	-44.31
1115.226	-84.31
1115.471	-0.31
1115.715	-32.31
1115.959	-190.31
1116.204	-163.31
1116.448	-0.31
1116.692	-103.31
1116.937	-172.31
1117.181	-19.31
1117.425	-29.31
1117.67	-77.31
1117.914	-136.31
1118.158	-89.31
1118.402	130.69
1118.647	55.69
1118.891	-91.31
1119.135	-51.31
1119.38	87.69
1119.624	13.69
1119.868	-136.31
1120.112	-145.31
1120.357	-56.31
1120.601	-122.31
1120.845	-228.31
1121.089	-152.31
1121.334	29.69
