Data from HR4C21111__25__09-58-43-453.txt Node

Date: Mon Feb 22 09:58:43 IST 2021
User: Kapil
Spectrometer: HR4C2111
Trigger mode: 4
Integration Time (sec): 2.300000E0
Scans to average: 1
Electric dark correction enabled: true
Nonlinearity correction enabled: false
Boxcar width: 0
XAxis mode: Wavelengths
Number of Pixels in Spectrum: 3648
>>>>>Begin Spectral Data<<<<<
189.472	-458.23
189.745	-458.23
190.017	-458.23
190.289	-462.23
190.561	-305.23
190.834	-38.23
191.106	-134.23
191.378	4.77
191.65	5.77
191.923	-123.23
192.195	-104.23
192.467	142.77
192.739	108.77
193.011	-28.23
193.284	90.77
193.556	185.77
193.828	-3.23
194.1	-107.23
194.372	-120.23
194.644	57.77
194.916	69.77
195.188	-146.23
195.46	-80.23
195.732	51.77
196.004	-15.23
196.276	-106.23
196.548	-67.23
196.82	70.77
197.092	56.77
197.364	-129.23
197.636	-91.23
197.908	13.77
198.18	-49.23
198.452	-91.23
198.724	-41.23
198.996	59.77
199.268	80.77
199.54	-8.23
199.811	-122.23
200.083	85.77
200.355	16.77
200.627	-181.23
200.899	-64.23
201.171	66.77
201.442	-48.23
201.714	-174.23
201.986	-94.23
202.258	71.77
202.529	114.77
202.801	2.77
203.073	79.77
203.345	191.77
203.616	15.77
203.888	-139.23
204.16	-151.23
204.431	67.77
204.703	-5.23
204.974	-126.23
205.246	1.77
205.518	170.77
205.789	4.77
206.061	-133.23
206.332	-94.23
206.604	28.77
206.876	93.77
207.147	124.77
207.419	4.77
207.69	130.77
207.962	-29.23
208.233	-178.23
208.505	3.77
208.776	180.77
209.047	95.77
209.319	-120.23
209.59	-88.23
209.862	99.77
210.133	-33.23
210.404	-163.23
210.676	-120.23
210.947	76.77
211.219	69.77
211.49	-127.23
211.761	-44.23
212.033	32.77
212.304	-41.23
212.575	-183.23
212.846	-91.23
213.118	25.77
213.389	-56.23
213.66	-110.23
213.931	-48.23
214.203	13.77
214.474	-37.23
214.745	-117.23
215.016	144.77
215.287	431.77
215.559	68.77
215.83	-116.23
216.101	-63.23
216.372	2.77
216.643	81.77
216.914	0.77
217.185	-81.23
217.456	162.77
217.727	26.77
217.998	-159.23
218.269	-57.23
218.54	28.77
218.811	-11.23
219.082	-116.23
219.353	-96.23
219.624	-5.23
219.895	-25.23
220.166	-127.23
220.437	-116.23
220.708	101.77
220.979	-14.23
221.25	-151.23
221.521	-102.23
221.792	30.77
222.063	91.77
222.334	37.77
222.604	185.77
222.875	169.77
223.146	88.77
223.417	-164.23
223.688	-30.23
223.958	129.77
224.229	-59.23
224.5	-207.23
224.771	-99.23
225.041	56.77
225.312	48.77
225.583	-102.23
225.854	-73.23
226.124	71.77
226.395	-10.23
226.666	-127.23
226.936	-87.23
227.207	74.77
227.478	-42.23
227.748	-91.23
228.019	51.77
228.289	251.77
228.56	-35.23
228.831	-44.23
229.101	48.77
229.372	54.77
229.642	-27.23
229.913	-144.23
230.183	-124.23
230.454	-9.23
230.724	-5.23
230.995	-106.23
231.265	-65.23
231.536	77.77
231.806	51.77
232.076	-125.23
232.347	-123.23
232.617	27.77
232.888	15.77
233.158	-73.23
233.428	-111.23
233.699	-15.23
233.969	-66.23
234.239	-163.23
234.51	-88.23
234.78	48.77
235.05	-19.23
235.321	-119.23
235.591	-72.23
235.861	67.77
236.131	-54.23
236.402	-183.23
236.672	-73.23
236.942	50.77
237.212	48.77
237.483	-59.23
237.753	8.77
238.023	168.77
238.293	16.77
238.563	-78.23
238.833	-104.23
239.103	70.77
239.374	-11.23
239.644	-136.23
239.914	-26.23
240.184	133.77
240.454	-2.23
240.724	-173.23
240.994	-59.23
241.264	35.77
241.534	69.77
241.804	-7.23
242.074	-76.23
242.344	-37.23
242.614	-57.23
242.884	-161.23
243.154	-119.23
243.424	40.77
243.694	75.77
243.964	-91.23
244.234	-66.23
244.503	133.77
244.773	10.77
245.043	-210.23
245.313	-130.23
245.583	116.77
245.853	74.77
246.123	-173.23
246.392	-106.23
246.662	1.77
246.932	-22.23
247.202	-182.23
247.471	-65.23
247.741	260.77
248.011	95.77
248.281	-134.23
248.55	-87.23
248.82	66.77
249.09	-13.23
249.359	-95.23
249.629	-75.23
249.899	67.77
250.168	74.77
250.438	-20.23
250.708	-111.23
250.977	82.77
251.247	45.77
251.516	-124.23
251.786	-66.23
252.055	132.77
252.325	23.77
252.595	-95.23
252.864	-56.23
253.134	57.77
253.403	-20.23
253.673	-156.23
253.942	-101.23
254.212	36.77
254.481	-8.23
254.75	-151.23
255.02	-88.23
255.289	51.77
255.559	-10.23
255.828	-120.23
256.097	-33.23
256.367	35.77
256.636	-55.23
256.906	-142.23
257.175	-12.23
257.444	260.77
257.714	70.77
257.983	-78.23
258.252	-33.23
258.521	21.77
258.791	59.77
259.06	-90.23
259.329	-39.23
259.598	59.77
259.868	-12.23
260.137	-124.23
260.406	0.77
260.675	97.77
260.944	31.77
261.214	-128.23
261.483	-41.23
261.752	181.77
262.021	29.77
262.29	-142.23
262.559	-106.23
262.828	30.77
263.097	-52.23
263.366	-218.23
263.635	-92.23
263.905	145.77
264.174	25.77
264.443	-213.23
264.712	-120.23
264.981	51.77
265.25	-35.23
265.519	-154.23
265.788	-140.23
266.057	28.77
266.325	51.77
266.594	-56.23
266.863	-114.23
267.132	37.77
267.401	7.77
267.67	-199.23
267.939	-139.23
268.208	40.77
268.477	79.77
268.745	-114.23
269.014	-88.23
269.283	134.77
269.552	36.77
269.821	-121.23
270.089	-9.23
270.358	-6.23
270.627	-37.23
270.896	-150.23
271.164	-167.23
271.433	20.77
271.702	78.77
271.971	-138.23
272.239	-129.23
272.508	31.77
272.777	-25.23
273.045	-11.23
273.314	-19.23
273.583	118.77
273.851	-14.23
274.12	-151.23
274.388	-133.23
274.657	-14.23
274.926	-18.23
275.194	-153.23
275.463	-59.23
275.731	34.77
276	200.77
276.268	422.77
276.537	-79.23
276.805	31.77
277.074	31.77
277.342	-171.23
277.611	-108.23
277.879	107.77
278.148	40.77
278.416	-133.23
278.684	-119.23
278.953	-11.23
279.221	-36.23
279.49	-187.23
279.758	-99.23
280.026	0.77
280.295	8.77
280.563	-114.23
280.831	898.77
281.1	2177.77
281.368	212.77
281.636	-82.23
281.904	-107.23
282.173	-11.23
282.441	-61.23
282.709	-96.23
282.977	40.77
283.246	50.77
283.514	-33.23
283.782	-62.23
284.05	35.77
284.318	59.77
284.587	-27.23
284.855	-133.23
285.123	-50.23
285.391	69.77
285.659	42.77
285.927	-144.23
286.195	-70.23
286.463	49.77
286.732	-8.23
287	-121.23
287.268	-50.23
287.536	21.77
287.804	-41.23
288.072	-139.23
288.34	-91.23
288.608	71.77
288.876	-42.23
289.144	-122.23
289.412	-16.23
289.68	59.77
289.948	-12.23
290.215	-107.23
290.483	-104.23
290.751	91.77
291.019	82.77
291.287	-165.23
291.555	-98.23
291.823	45.77
292.091	-10.23
292.358	-62.23
292.626	-12.23
292.894	88.77
293.162	55.77
293.43	-101.23
293.697	-78.23
293.965	51.77
294.233	-18.23
294.501	-153.23
294.768	-54.23
295.036	79.77
295.304	32.77
295.572	-121.23
295.839	-108.23
296.107	99.77
296.375	1.77
296.642	-133.23
296.91	-113.23
297.178	63.77
297.445	175.77
297.713	94.77
297.98	-64.23
298.248	-41.23
298.516	-56.23
298.783	-121.23
299.051	-115.23
299.318	16.77
299.586	-17.23
299.853	-75.23
300.121	-89.23
300.388	35.77
300.656	-25.23
300.923	-154.23
301.191	-39.23
301.458	45.77
301.726	-24.23
301.993	-150.23
302.26	-93.23
302.528	47.77
302.795	-2.23
303.063	-78.23
303.33	-55.23
303.597	28.77
303.865	21.77
304.132	-124.23
304.399	-119.23
304.667	-13.23
304.934	8.77
305.201	-103.23
305.469	-20.23
305.736	47.77
306.003	41.77
306.27	-42.23
306.538	-94.23
306.805	4.77
307.072	-18.23
307.339	-88.23
307.606	-45.23
307.874	165.77
308.141	77.77
308.408	-122.23
308.675	-103.23
308.942	-33.23
309.209	-62.23
309.477	-122.23
309.744	-85.23
310.011	28.77
310.278	40.77
310.545	-34.23
310.812	-48.23
311.079	142.77
311.346	211.77
311.613	72.77
311.88	-33.23
312.147	-68.23
312.414	-28.23
312.681	-106.23
312.948	-23.23
313.215	108.77
313.482	96.77
313.749	-80.23
314.016	-183.23
314.283	-41.23
314.55	56.77
314.817	-113.23
315.083	-114.23
315.35	-79.23
315.617	-137.23
315.884	-144.23
316.151	60.77
316.418	159.77
316.684	-18.23
316.951	-194.23
317.218	-108.23
317.485	-8.23
317.752	-50.23
318.018	-97.23
318.285	-3.23
318.552	16.77
318.819	-45.23
319.085	-112.23
319.352	-37.23
319.619	53.77
319.885	-21.23
320.152	-192.23
320.419	-97.23
320.685	33.77
320.952	-22.23
321.219	-67.23
321.485	77.77
321.752	24.77
322.019	-34.23
322.285	54.77
322.552	-4.23
322.818	129.77
323.085	-4.23
323.351	-137.23
323.618	-22.23
323.884	52.77
324.151	-62.23
324.417	-33.23
324.684	-75.23
324.95	-50.23
325.217	-133.23
325.483	-173.23
325.75	-28.23
326.016	-0.23
326.283	-26.23
326.549	-193.23
326.815	-83.23
327.082	118.77
327.348	22.77
327.615	-106.23
327.881	-23.23
328.147	112.77
328.414	121.77
328.68	25.77
328.946	-35.23
329.212	27.77
329.479	1.77
329.745	-109.23
330.011	-100.23
330.278	5.77
330.544	-47.23
330.81	-46.23
331.076	-42.23
331.342	-31.23
331.609	-28.23
331.875	-79.23
332.141	-106.23
332.407	33.77
332.673	14.77
332.94	7.77
333.206	-35.23
333.472	52.77
333.738	74.77
334.004	-120.23
334.27	-16.23
334.536	15.77
334.802	-28.23
335.068	-84.23
335.334	7.77
335.6	45.77
335.866	-19.23
336.132	-156.23
336.398	-73.23
336.664	-3.23
336.93	-41.23
337.196	-85.23
337.462	-0.23
337.728	51.77
337.994	-24.23
338.26	-81.23
338.526	-28.23
338.792	-32.23
339.058	-32.23
339.324	-122.23
339.59	3.77
339.856	76.77
340.121	-43.23
340.387	-128.23
340.653	76.77
340.919	149.77
341.185	71.77
341.45	-47.23
341.716	39.77
341.982	129.77
342.248	-43.23
342.514	-69.23
342.779	18.77
343.045	41.77
343.311	4.77
343.576	-75.23
343.842	-13.23
344.108	147.77
344.374	36.77
344.639	-86.23
344.905	-72.23
345.171	60.77
345.436	-56.23
345.702	-92.23
345.967	70.77
346.233	107.77
346.499	43.77
346.764	-148.23
347.03	-49.23
347.295	-7.23
347.561	27.77
347.826	-26.23
348.092	-111.23
348.357	-5.23
348.623	4.77
348.888	-94.23
349.154	-57.23
349.419	84.77
349.685	37.77
349.95	-41.23
350.216	-15.23
350.481	71.77
350.747	0.77
351.012	-131.23
351.277	-67.23
351.543	71.77
351.808	29.77
352.074	-130.23
352.339	-85.23
352.604	92.77
352.87	55.77
353.135	-64.23
353.4	-9.23
353.666	38.77
353.931	26.77
354.196	-109.23
354.461	-81.23
354.727	99.77
354.992	83.77
355.257	-68.23
355.522	41.77
355.788	82.77
356.053	143.77
356.318	-15.23
356.583	-24.23
356.848	182.77
357.113	325.77
357.379	31.77
357.644	14.77
357.909	189.77
358.174	211.77
358.439	-39.23
358.704	34.77
358.969	164.77
359.234	174.77
359.499	8.77
359.765	88.77
360.03	216.77
360.295	202.77
360.56	32.77
360.825	109.77
361.09	318.77
361.355	130.77
361.62	108.77
361.885	132.77
362.15	117.77
362.415	139.77
362.679	88.77
362.944	240.77
363.209	257.77
363.474	285.77
363.739	237.77
364.004	132.77
364.269	188.77
364.534	257.77
364.799	221.77
365.063	225.77
365.328	332.77
365.593	321.77
365.858	181.77
366.123	199.77
366.387	353.77
366.652	284.77
366.917	173.77
367.182	234.77
367.447	383.77
367.711	353.77
367.976	310.77
368.241	379.77
368.505	453.77
368.77	347.77
369.035	339.77
369.299	400.77
369.564	461.77
369.829	377.77
370.093	347.77
370.358	351.77
370.623	459.77
370.887	470.77
371.152	345.77
371.416	430.77
371.681	468.77
371.946	395.77
372.21	387.77
372.475	520.77
372.739	552.77
373.004	526.77
373.268	502.77
373.533	558.77
373.797	610.77
374.062	620.77
374.326	465.77
374.591	560.77
374.855	674.77
375.12	613.77
375.384	459.77
375.648	560.77
375.913	714.77
376.177	743.77
376.442	615.77
376.706	650.77
376.97	782.77
377.235	756.77
377.499	752.77
377.763	743.77
378.028	726.77
378.292	810.77
378.556	746.77
378.821	693.77
379.085	804.77
379.349	748.77
379.614	713.77
379.878	851.77
380.142	1034.77
380.406	947.77
380.671	986.77
380.935	1140.77
381.199	1255.77
381.463	1113.77
381.727	1044.77
381.991	1029.77
382.256	1149.77
382.52	1097.77
382.784	1129.77
383.048	1303.77
383.312	1222.77
383.576	1201.77
383.84	1130.77
384.104	1197.77
384.369	1315.77
384.633	1226.77
384.897	1146.77
385.161	1294.77
385.425	1412.77
385.689	1370.77
385.953	1337.77
386.217	1357.77
386.481	1468.77
386.745	1495.77
387.009	1461.77
387.273	1449.77
387.537	1524.77
387.801	1568.77
388.064	1528.77
388.328	1661.77
388.592	1722.77
388.856	1670.77
389.12	1617.77
389.384	1731.77
389.648	1755.77
389.912	1853.77
390.176	1850.77
390.439	1967.77
390.703	1816.77
390.967	1820.77
391.231	1762.77
391.495	1830.77
391.758	1924.77
392.022	1937.77
392.286	1836.77
392.55	1890.77
392.813	2019.77
393.077	2085.77
393.341	2040.77
393.605	2139.77
393.868	2141.77
394.132	2142.77
394.396	2112.77
394.659	2278.77
394.923	2238.77
395.187	2183.77
395.45	2201.77
395.714	2300.77
395.978	2328.77
396.241	2340.77
396.505	2254.77
396.768	2355.77
397.032	2473.77
397.295	2474.77
397.559	2421.77
397.823	2401.77
398.086	2578.77
398.35	2550.77
398.613	2465.77
398.877	2565.77
399.14	2728.77
399.404	2799.77
399.667	2702.77
399.931	2655.77
400.194	2739.77
400.457	2743.77
400.721	2785.77
400.984	2856.77
401.248	2849.77
401.511	2809.77
401.775	2683.77
402.038	2789.77
402.301	3032.77
402.565	3014.77
402.828	2832.77
403.091	2936.77
403.355	3095.77
403.618	3061.77
403.881	3067.77
404.145	3108.77
404.408	3145.77
404.671	3112.77
404.934	3175.77
405.198	3249.77
405.461	3253.77
405.724	3290.77
405.987	3316.77
406.251	3397.77
406.514	3509.77
406.777	3392.77
407.04	3313.77
407.303	3301.77
407.567	3425.77
407.83	3499.77
408.093	3347.77
408.356	3509.77
408.619	3633.77
408.882	3688.77
409.145	3621.77
409.408	3586.77
409.672	3687.77
409.935	3606.77
410.198	3473.77
410.461	3554.77
410.724	3835.77
410.987	3774.77
411.25	3584.77
411.513	3743.77
411.776	3828.77
412.039	3662.77
412.302	3641.77
412.565	3702.77
412.828	3739.77
413.091	3744.77
413.354	3681.77
413.617	3681.77
413.879	3738.77
414.142	3749.77
414.405	3579.77
414.668	3646.77
414.931	3771.77
415.194	3717.77
415.457	3627.77
415.72	3686.77
415.983	3683.77
416.245	3721.77
416.508	3650.77
416.771	3576.77
417.034	3711.77
417.297	3731.77
417.559	3700.77
417.822	3672.77
418.085	3733.77
418.348	3746.77
418.61	3636.77
418.873	3637.77
419.136	3647.77
419.399	3626.77
419.661	3656.77
419.924	3606.77
420.187	3729.77
420.449	3766.77
420.712	3733.77
420.975	3699.77
421.237	3809.77
421.5	3858.77
421.762	3914.77
422.025	3944.77
422.288	3995.77
422.55	3805.77
422.813	3702.77
423.075	3810.77
423.338	3900.77
423.601	4005.77
423.863	3969.77
424.126	4012.77
424.388	4106.77
424.651	4090.77
424.913	4049.77
425.176	4031.77
425.438	4046.77
425.701	4066.77
425.963	3982.77
426.225	3980.77
426.488	4039.77
426.75	4068.77
427.013	4069.77
427.275	4127.77
427.538	4134.77
427.8	4181.77
428.062	4100.77
428.325	4115.77
428.587	4182.77
428.849	4171.77
429.112	4205.77
429.374	4179.77
429.636	4211.77
429.899	4318.77
430.161	4226.77
430.423	4272.77
430.686	4412.77
430.948	4435.77
431.21	4250.77
431.472	4237.77
431.735	4375.77
431.997	4380.77
432.259	4353.77
432.521	4214.77
432.783	4401.77
433.046	4373.77
433.308	4243.77
433.57	4267.77
433.832	4506.77
434.094	4327.77
434.356	4228.77
434.618	4389.77
434.881	4467.77
435.143	4551.77
435.405	4519.77
435.667	4442.77
435.929	4472.77
436.191	4489.77
436.453	4433.77
436.715	4524.77
436.977	4642.77
437.239	4764.77
437.501	4653.77
437.763	4584.77
438.025	4676.77
438.287	4617.77
438.549	4616.77
438.811	4585.77
439.073	4621.77
439.335	4657.77
439.597	4567.77
439.859	4551.77
440.121	4689.77
440.383	4651.77
440.645	4592.77
440.907	4615.77
441.168	4634.77
441.43	4671.77
441.692	4643.77
441.954	4712.77
442.216	4755.77
442.478	4738.77
442.74	4593.77
443.001	4713.77
443.263	4896.77
443.525	4718.77
443.787	4595.77
444.048	4576.77
444.31	4602.77
444.572	4670.77
444.834	4637.77
445.095	4676.77
445.357	4899.77
445.619	4686.77
445.881	4576.77
446.142	4656.77
446.404	4639.77
446.666	4676.77
446.927	4699.77
447.189	4844.77
447.451	4872.77
447.712	4667.77
447.974	4556.77
448.235	4564.77
448.497	4648.77
448.759	4639.77
449.02	4653.77
449.282	4570.77
449.543	4694.77
449.805	4748.77
450.066	4509.77
450.328	4638.77
450.59	4800.77
450.851	4644.77
451.113	4543.77
451.374	4499.77
451.636	4735.77
451.897	4833.77
452.158	4707.77
452.42	4782.77
452.681	4852.77
452.943	4631.77
453.204	4614.77
453.466	4636.77
453.727	4621.77
453.988	4686.77
454.25	4596.77
454.511	4658.77
454.773	4719.77
455.034	4861.77
455.295	4568.77
455.557	4702.77
455.818	4690.77
456.079	4702.77
456.341	4797.77
456.602	4872.77
456.863	4885.77
457.124	4752.77
457.386	4625.77
457.647	4629.77
457.908	4702.77
458.169	4860.77
458.431	4727.77
458.692	4805.77
458.953	4856.77
459.214	4810.77
459.476	4969.77
459.737	5092.77
459.998	5103.77
460.259	4927.77
460.52	4902.77
460.781	5044.77
461.043	5188.77
461.304	5085.77
461.565	4888.77
461.826	4980.77
462.087	5149.77
462.348	5301.77
462.609	5290.77
462.87	5221.77
463.131	5110.77
463.392	5343.77
463.653	5382.77
463.914	5386.77
464.175	5345.77
464.436	5365.77
464.697	5407.77
464.958	5288.77
465.219	5325.77
465.48	5425.77
465.741	5501.77
466.002	5390.77
466.263	5575.77
466.524	5592.77
466.785	5452.77
467.046	5532.77
467.307	5698.77
467.568	5775.77
467.829	5764.77
468.089	5762.77
468.35	5815.77
468.611	5728.77
468.872	5678.77
469.133	5922.77
469.394	6105.77
469.655	6160.77
469.915	6047.77
470.176	5940.77
470.437	6036.77
470.698	6232.77
470.958	6232.77
471.219	6227.77
471.48	6350.77
471.741	6510.77
472.001	6511.77
472.262	6541.77
472.523	6755.77
472.784	6819.77
473.044	6720.77
473.305	6754.77
473.566	6768.77
473.826	6892.77
474.087	6820.77
474.348	6906.77
474.608	7100.77
474.869	7066.77
475.129	7000.77
475.39	7097.77
475.651	7296.77
475.911	7451.77
476.172	7302.77
476.432	7496.77
476.693	7727.77
476.953	7581.77
477.214	7590.77
477.475	7651.77
477.735	7732.77
477.996	7823.77
478.256	7688.77
478.517	7823.77
478.777	8000.77
479.038	8159.77
479.298	8242.77
479.558	8229.77
479.819	8366.77
480.079	8398.77
480.34	8391.77
480.6	8377.77
480.861	8522.77
481.121	8519.77
481.381	8507.77
481.642	8622.77
481.902	8669.77
482.162	8688.77
482.423	8729.77
482.683	8842.77
482.943	8970.77
483.204	8959.77
483.464	8942.77
483.724	8980.77
483.985	9081.77
484.245	9187.77
484.505	9151.77
484.765	9159.77
485.026	9281.77
485.286	9417.77
485.546	9428.77
485.806	9484.77
486.067	9488.77
486.327	9420.77
486.587	9460.77
486.847	9556.77
487.107	9707.77
487.368	9696.77
487.628	9662.77
487.888	9767.77
488.148	9837.77
488.408	9749.77
488.668	9867.77
488.928	9888.77
489.188	9882.77
489.449	9937.77
489.709	9840.77
489.969	9873.77
490.229	10043.77
490.489	10084.77
490.749	9987.77
491.009	9889.77
491.269	9981.77
491.529	10024.77
491.789	10015.77
492.049	10191.77
492.309	10264.77
492.569	10115.77
492.829	10105.77
493.089	10111.77
493.349	10248.77
493.609	10188.77
493.869	10128.77
494.129	10259.77
494.389	10300.77
494.648	10211.77
494.908	10156.77
495.168	10246.77
495.428	10361.77
495.688	10287.77
495.948	10127.77
496.208	10142.77
496.467	10278.77
496.727	10329.77
496.987	10376.77
497.247	10359.77
497.507	10448.77
497.767	10473.77
498.026	10257.77
498.286	10335.77
498.546	10524.77
498.806	10417.77
499.065	10458.77
499.325	10337.77
499.585	10393.77
499.845	10402.77
500.104	10376.77
500.364	10452.77
500.624	10430.77
500.883	10362.77
501.143	10459.77
501.403	10567.77
501.662	10569.77
501.922	10570.77
502.182	10352.77
502.441	10348.77
502.701	10413.77
502.96	10517.77
503.22	10447.77
503.48	10374.77
503.739	10441.77
503.999	10434.77
504.258	10327.77
504.518	10359.77
504.777	10492.77
505.037	10531.77
505.296	10410.77
505.556	10422.77
505.815	10590.77
506.075	10667.77
506.334	10560.77
506.594	10345.77
506.853	10400.77
507.113	10400.77
507.372	10286.77
507.632	10424.77
507.891	10544.77
508.151	10533.77
508.41	10369.77
508.669	10391.77
508.929	10517.77
509.188	10471.77
509.447	10432.77
509.707	10406.77
509.966	10469.77
510.226	10527.77
510.485	10461.77
510.744	10421.77
511.004	10509.77
511.263	10415.77
511.522	10396.77
511.781	10384.77
512.041	10546.77
512.3	10514.77
512.559	10475.77
512.818	10527.77
513.078	10555.77
513.337	10610.77
513.596	10434.77
513.855	10465.77
514.115	10567.77
514.374	10525.77
514.633	10469.77
514.892	10464.77
515.151	10595.77
515.41	10630.77
515.67	10552.77
515.929	10499.77
516.188	10541.77
516.447	10517.77
516.706	10491.77
516.965	10571.77
517.224	10641.77
517.483	10619.77
517.743	10501.77
518.002	10595.77
518.261	10688.77
518.52	10679.77
518.779	10561.77
519.038	10545.77
519.297	10606.77
519.556	10647.77
519.815	10519.77
520.074	10511.77
520.333	10664.77
520.592	10660.77
520.851	10559.77
521.11	10694.77
521.369	10744.77
521.628	10623.77
521.887	10543.77
522.145	10557.77
522.404	10584.77
522.663	10664.77
522.922	10552.77
523.181	10567.77
523.44	10695.77
523.699	10702.77
523.958	10496.77
524.217	10438.77
524.475	10536.77
524.734	10568.77
524.993	10537.77
525.252	10526.77
525.511	10593.77
525.769	10577.77
526.028	10475.77
526.287	10629.77
526.546	10604.77
526.805	10556.77
527.063	10447.77
527.322	10500.77
527.581	10615.77
527.839	10569.77
528.098	10534.77
528.357	10520.77
528.616	10530.77
528.874	10537.77
529.133	10512.77
529.392	10601.77
529.65	10595.77
529.909	10501.77
530.168	10359.77
530.426	10453.77
530.685	10552.77
530.943	10528.77
531.202	10498.77
531.461	10456.77
531.719	10549.77
531.978	10487.77
532.236	10503.77
532.495	10565.77
532.753	10653.77
533.012	10568.77
533.271	10420.77
533.529	10410.77
533.788	10490.77
534.046	10424.77
534.305	10397.77
534.563	10639.77
534.822	10689.77
535.08	10605.77
535.338	10492.77
535.597	10531.77
535.855	10655.77
536.114	10577.77
536.372	10496.77
536.631	10615.77
536.889	10729.77
537.147	10653.77
537.406	10384.77
537.664	10551.77
537.923	10664.77
538.181	10631.77
538.439	10518.77
538.698	10631.77
538.956	10608.77
539.214	10537.77
539.473	10566.77
539.731	10649.77
539.989	10776.77
540.248	10755.77
540.506	10724.77
540.764	10725.77
541.022	10768.77
541.281	10827.77
541.539	10766.77
541.797	10781.77
542.055	10901.77
542.314	11025.77
542.572	10980.77
542.83	10874.77
543.088	11028.77
543.346	10944.77
543.604	10854.77
543.863	10957.77
544.121	11156.77
544.379	11118.77
544.637	11010.77
544.895	11146.77
545.153	11253.77
545.411	11115.77
545.67	11024.77
545.928	11148.77
546.186	11257.77
546.444	11335.77
546.702	11266.77
546.96	11338.77
547.218	11387.77
547.476	11397.77
547.734	11304.77
547.992	11355.77
548.25	11551.77
548.508	11471.77
548.766	11466.77
549.024	11485.77
549.282	11556.77
549.54	11703.77
549.798	11662.77
550.056	11617.77
550.314	11753.77
550.572	11748.77
550.83	11732.77
551.088	11951.77
551.346	12053.77
551.603	11987.77
551.861	11926.77
552.119	12032.77
552.377	12153.77
552.635	12001.77
552.893	11937.77
553.151	12054.77
553.409	12225.77
553.666	12221.77
553.924	12190.77
554.182	12213.77
554.44	12332.77
554.698	12412.77
554.955	12298.77
555.213	12313.77
555.471	12472.77
555.729	12477.77
555.986	12365.77
556.244	12431.77
556.502	12642.77
556.76	12534.77
557.017	12530.77
557.275	12595.77
557.533	12773.77
557.79	12752.77
558.048	12613.77
558.306	12658.77
558.563	12747.77
558.821	12747.77
559.079	12707.77
559.336	12741.77
559.594	12811.77
559.852	12789.77
560.109	12717.77
560.367	12871.77
560.624	12956.77
560.882	12920.77
561.14	12916.77
561.397	12965.77
561.655	12904.77
561.912	12995.77
562.17	12956.77
562.427	12959.77
562.685	12984.77
562.942	12973.77
563.2	12951.77
563.457	13005.77
563.715	12963.77
563.972	12998.77
564.23	12911.77
564.487	12888.77
564.745	13037.77
565.002	13074.77
565.26	12940.77
565.517	12991.77
565.774	13039.77
566.032	13036.77
566.289	12982.77
566.547	12945.77
566.804	13009.77
567.061	13002.77
567.319	12961.77
567.576	13023.77
567.833	13091.77
568.091	13069.77
568.348	12952.77
568.605	13033.77
568.863	13031.77
569.12	12991.77
569.377	12953.77
569.635	12888.77
569.892	12884.77
570.149	12805.77
570.406	12664.77
570.664	12757.77
570.921	12901.77
571.178	12721.77
571.435	12693.77
571.693	12669.77
571.95	12728.77
572.207	12630.77
572.464	12567.77
572.721	12688.77
572.979	12683.77
573.236	12619.77
573.493	12493.77
573.75	12486.77
574.007	12584.77
574.264	12458.77
574.521	12357.77
574.779	12290.77
575.036	12351.77
575.293	12334.77
575.55	12232.77
575.807	12270.77
576.064	12232.77
576.321	12185.77
576.578	12026.77
576.835	12005.77
577.092	12104.77
577.349	11912.77
577.606	11747.77
577.863	11743.77
578.12	11769.77
578.377	11707.77
578.634	11566.77
578.891	11625.77
579.148	11662.77
579.405	11513.77
579.662	11418.77
579.919	11476.77
580.176	11450.77
580.433	11360.77
580.69	11197.77
580.947	11207.77
581.204	11244.77
581.461	11163.77
581.717	10973.77
581.974	11019.77
582.231	11040.77
582.488	10843.77
582.745	10607.77
583.002	10644.77
583.259	10834.77
583.515	10792.77
583.772	10537.77
584.029	10558.77
584.286	10624.77
584.543	10395.77
584.799	10307.77
585.056	10320.77
585.313	10414.77
585.57	10297.77
585.826	10145.77
586.083	10216.77
586.34	10255.77
586.597	10081.77
586.853	9907.77
587.11	9868.77
587.367	10037.77
587.623	9972.77
587.88	9828.77
588.137	9677.77
588.393	9742.77
588.65	9573.77
588.907	9445.77
589.163	9457.77
589.42	9499.77
589.677	9502.77
589.933	9394.77
590.19	9376.77
590.446	9449.77
590.703	9427.77
590.96	9179.77
591.216	9102.77
591.473	9143.77
591.729	9179.77
591.986	9080.77
592.242	9129.77
592.499	9278.77
592.755	9042.77
593.012	8899.77
593.268	9021.77
593.525	8960.77
593.781	8973.77
594.038	8907.77
594.294	8931.77
594.551	8870.77
594.807	8867.77
595.064	8859.77
595.32	8829.77
595.576	8875.77
595.833	8838.77
596.089	8650.77
596.346	8787.77
596.602	8810.77
596.858	8835.77
597.115	8758.77
597.371	8729.77
597.628	8663.77
597.884	8673.77
598.14	8604.77
598.397	8741.77
598.653	8863.77
598.909	8702.77
599.166	8524.77
599.422	8550.77
599.678	8687.77
599.934	8721.77
600.191	8472.77
600.447	8505.77
600.703	8545.77
600.959	8500.77
601.216	8343.77
601.472	8394.77
601.728	8507.77
601.984	8411.77
602.241	8354.77
602.497	8456.77
602.753	8543.77
603.009	8464.77
603.265	8383.77
603.521	8502.77
603.778	8596.77
604.034	8445.77
604.29	8331.77
604.546	8422.77
604.802	8529.77
605.058	8377.77
605.314	8305.77
605.571	8411.77
605.827	8429.77
606.083	8344.77
606.339	8241.77
606.595	8340.77
606.851	8509.77
607.107	8481.77
607.363	8269.77
607.619	8323.77
607.875	8479.77
608.131	8426.77
608.387	8184.77
608.643	8256.77
608.899	8341.77
609.155	8267.77
609.411	8243.77
609.667	8305.77
609.923	8279.77
610.179	8234.77
610.435	8087.77
610.691	8100.77
610.947	8254.77
611.203	8190.77
611.459	8141.77
611.714	8191.77
611.97	8305.77
612.226	8211.77
612.482	7948.77
612.738	8091.77
612.994	8345.77
613.25	8093.77
613.505	7932.77
613.761	7971.77
614.017	8065.77
614.273	8072.77
614.529	7956.77
614.785	7933.77
615.04	8045.77
615.296	8007.77
615.552	7926.77
615.808	7953.77
616.063	8032.77
616.319	8029.77
616.575	7859.77
616.831	7913.77
617.086	8081.77
617.342	7965.77
617.598	7841.77
617.854	7873.77
618.109	7943.77
618.365	7787.77
618.621	7707.77
618.876	7744.77
619.132	7823.77
619.388	7795.77
619.643	7605.77
619.899	7680.77
620.155	7738.77
620.41	7726.77
620.666	7566.77
620.921	7592.77
621.177	7731.77
621.433	7719.77
621.688	7585.77
621.944	7508.77
622.199	7537.77
622.455	7586.77
622.71	7452.77
622.966	7488.77
623.221	7408.77
623.477	7447.77
623.732	7444.77
623.988	7348.77
624.243	7436.77
624.499	7445.77
624.754	7267.77
625.01	7240.77
625.265	7315.77
625.521	7396.77
625.776	7277.77
626.032	7226.77
626.287	7272.77
626.543	7196.77
626.798	7192.77
627.053	7155.77
627.309	7230.77
627.564	7097.77
627.82	7096.77
628.075	7196.77
628.33	7155.77
628.586	6958.77
628.841	6820.77
629.096	6953.77
629.352	7042.77
629.607	6907.77
629.862	6842.77
630.118	6944.77
630.373	6920.77
630.628	6957.77
630.884	6802.77
631.139	6840.77
631.394	6998.77
631.649	6883.77
631.905	6703.77
632.16	6750.77
632.415	6909.77
632.67	6733.77
632.926	6586.77
633.181	6557.77
633.436	6656.77
633.691	6586.77
633.946	6502.77
634.202	6543.77
634.457	6597.77
634.712	6544.77
634.967	6463.77
635.222	6402.77
635.477	6469.77
635.733	6445.77
635.988	6325.77
636.243	6378.77
636.498	6459.77
636.753	6394.77
637.008	6229.77
637.263	6284.77
637.518	6347.77
637.773	6316.77
638.028	6228.77
638.283	6195.77
638.539	6299.77
638.794	6267.77
639.049	6097.77
639.304	6082.77
639.559	6160.77
639.814	6099.77
640.069	6030.77
640.324	6034.77
640.579	6133.77
640.834	6067.77
641.089	5917.77
641.344	5953.77
641.598	6154.77
641.853	6057.77
642.108	5884.77
642.363	5840.77
642.618	6000.77
642.873	5885.77
643.128	5733.77
643.383	5773.77
643.638	5767.77
643.893	5840.77
644.148	5805.77
644.402	5716.77
644.657	5776.77
644.912	5733.77
645.167	5686.77
645.422	5750.77
645.677	5692.77
645.931	5711.77
646.186	5688.77
646.441	5601.77
646.696	5560.77
646.951	5612.77
647.205	5575.77
647.46	5521.77
647.715	5539.77
647.97	5698.77
648.224	5800.77
648.479	5619.77
648.734	5697.77
648.989	5610.77
649.243	5515.77
649.498	5494.77
649.753	5481.77
650.007	5576.77
650.262	5432.77
650.517	5399.77
650.771	5384.77
651.026	5307.77
651.281	5246.77
651.535	5375.77
651.79	5400.77
652.045	5398.77
652.299	5318.77
652.554	5296.77
652.809	5366.77
653.063	5499.77
653.318	5410.77
653.572	5283.77
653.827	5357.77
654.081	5270.77
654.336	5128.77
654.591	5163.77
654.845	5265.77
655.1	5220.77
655.354	5158.77
655.609	5213.77
655.863	5359.77
656.118	5318.77
656.372	5108.77
656.627	5168.77
656.881	5268.77
657.136	5155.77
657.39	5034.77
657.645	5164.77
657.899	5309.77
658.153	5161.77
658.408	5093.77
658.662	5161.77
658.917	5170.77
659.171	5059.77
659.426	4976.77
659.68	5055.77
659.934	5164.77
660.189	5135.77
660.443	4983.77
660.697	5146.77
660.952	5241.77
661.206	5101.77
661.46	4943.77
661.715	4998.77
661.969	5157.77
662.223	5110.77
662.478	4984.77
662.732	5039.77
662.986	5096.77
663.241	5079.77
663.495	5017.77
663.749	5075.77
664.003	5179.77
664.258	5062.77
664.512	5006.77
664.766	5069.77
665.02	5123.77
665.275	5157.77
665.529	4987.77
665.783	5023.77
666.037	5128.77
666.291	5105.77
666.546	4999.77
666.8	5023.77
667.054	4999.77
667.308	5055.77
667.562	4915.77
667.816	5012.77
668.071	5166.77
668.325	5068.77
668.579	5068.77
668.833	5108.77
669.087	5230.77
669.341	5144.77
669.595	5012.77
669.849	5077.77
670.103	5143.77
670.357	5135.77
670.612	5106.77
670.866	5088.77
671.12	5147.77
671.374	5164.77
671.628	5103.77
671.882	5080.77
672.136	5168.77
672.39	5165.77
672.644	5031.77
672.898	5236.77
673.152	5377.77
673.406	5284.77
673.66	5217.77
673.914	5256.77
674.168	5274.77
674.422	5188.77
674.675	5093.77
674.929	5194.77
675.183	5336.77
675.437	5272.77
675.691	5237.77
675.945	5339.77
676.199	5413.77
676.453	5266.77
676.707	5160.77
676.961	5235.77
677.214	5355.77
677.468	5360.77
677.722	5347.77
677.976	5338.77
678.23	5414.77
678.484	5357.77
678.737	5289.77
678.991	5357.77
679.245	5404.77
679.499	5376.77
679.753	5291.77
680.006	5382.77
680.26	5484.77
680.514	5481.77
680.768	5372.77
681.021	5464.77
681.275	5469.77
681.529	5480.77
681.783	5392.77
682.036	5444.77
682.29	5469.77
682.544	5446.77
682.797	5410.77
683.051	5442.77
683.305	5535.77
683.559	5553.77
683.812	5558.77
684.066	5548.77
684.32	5611.77
684.573	5611.77
684.827	5608.77
685.08	5624.77
685.334	5734.77
685.588	5639.77
685.841	5496.77
686.095	5681.77
686.348	5718.77
686.602	5689.77
686.856	5675.77
687.109	5646.77
687.363	5653.77
687.616	5621.77
687.87	5512.77
688.123	5533.77
688.377	5684.77
688.63	5752.77
688.884	5732.77
689.137	5777.77
689.391	5816.77
689.644	5678.77
689.898	5584.77
690.151	5652.77
690.405	5830.77
690.658	5756.77
690.912	5681.77
691.165	5663.77
691.419	5779.77
691.672	5848.77
691.926	5738.77
692.179	5719.77
692.432	5817.77
692.686	5783.77
692.939	5634.77
693.193	5670.77
693.446	5778.77
693.699	5825.77
693.953	5813.77
694.206	5782.77
694.459	5889.77
694.713	5901.77
694.966	5789.77
695.219	5786.77
695.473	5820.77
695.726	5773.77
695.979	5676.77
696.233	5797.77
696.486	5846.77
696.739	5830.77
696.992	5750.77
697.246	5853.77
697.499	5942.77
697.752	5786.77
698.006	5728.77
698.259	5821.77
698.512	5825.77
698.765	5800.77
699.018	5752.77
699.272	5796.77
699.525	5817.77
699.778	5724.77
700.031	5662.77
700.284	5701.77
700.538	5824.77
700.791	5757.77
701.044	5733.77
701.297	5769.77
701.55	5729.77
701.803	5696.77
702.056	5628.77
702.31	5667.77
702.563	5783.77
702.816	5687.77
703.069	5598.77
703.322	5687.77
703.575	5784.77
703.828	5770.77
704.081	5675.77
704.334	5706.77
704.587	5735.77
704.84	5688.77
705.093	5655.77
705.346	5720.77
705.599	5736.77
705.853	5794.77
706.106	5837.77
706.359	6054.77
706.612	5778.77
706.865	5773.77
707.118	5589.77
707.37	5671.77
707.623	5767.77
707.876	5728.77
708.129	5664.77
708.382	5718.77
708.635	5773.77
708.888	5696.77
709.141	5572.77
709.394	5668.77
709.647	5756.77
709.9	5617.77
710.153	5515.77
710.406	5627.77
710.658	5680.77
710.911	5680.77
711.164	5515.77
711.417	5496.77
711.67	5584.77
711.923	5660.77
712.176	5532.77
712.428	5540.77
712.681	5582.77
712.934	5581.77
713.187	5481.77
713.44	5440.77
713.692	5557.77
713.945	5431.77
714.198	5353.77
714.451	5388.77
714.704	5556.77
714.956	5579.77
715.209	5576.77
715.462	5543.77
715.715	5535.77
715.967	5473.77
716.22	5279.77
716.473	5345.77
716.725	5488.77
716.978	5440.77
717.231	5388.77
717.484	5425.77
717.736	5357.77
717.989	5274.77
718.242	5247.77
718.494	5311.77
718.747	5389.77
718.999	5324.77
719.252	5368.77
719.505	5337.77
719.757	5283.77
720.01	5217.77
720.263	5235.77
720.515	5266.77
720.768	5345.77
721.02	5305.77
721.273	5148.77
721.525	5098.77
721.778	5167.77
722.031	5267.77
722.283	5077.77
722.536	5085.77
722.788	5137.77
723.041	5088.77
723.293	5031.77
723.546	4999.77
723.798	5105.77
724.051	5158.77
724.303	5111.77
724.556	5124.77
724.808	5235.77
725.061	5137.77
725.313	4971.77
725.566	4965.77
725.818	5019.77
726.071	5024.77
726.323	4864.77
726.575	4954.77
726.828	5077.77
727.08	5037.77
727.333	4906.77
727.585	4899.77
727.837	4947.77
728.09	4907.77
728.342	4803.77
728.595	4890.77
728.847	5043.77
729.099	4803.77
729.352	4791.77
729.604	4828.77
729.856	4873.77
730.109	4842.77
730.361	4725.77
730.613	4885.77
730.866	4964.77
731.118	4799.77
731.37	4743.77
731.622	4743.77
731.875	4791.77
732.127	4810.77
732.379	4760.77
732.631	4803.77
732.884	4786.77
733.136	4738.77
733.388	4575.77
733.64	4616.77
733.893	4774.77
734.145	4665.77
734.397	4513.77
734.649	4522.77
734.901	4614.77
735.154	4488.77
735.406	4426.77
735.658	4506.77
735.91	4662.77
736.162	4576.77
736.414	4409.77
736.667	4519.77
736.919	4525.77
737.171	4407.77
737.423	4349.77
737.675	4412.77
737.927	4501.77
738.179	4417.77
738.431	4378.77
738.684	4362.77
738.936	4431.77
739.188	4464.77
739.44	4281.77
739.692	4263.77
739.944	4325.77
740.196	4335.77
740.448	4235.77
740.7	4258.77
740.952	4308.77
741.204	4316.77
741.456	4210.77
741.708	4235.77
741.96	4248.77
742.212	4331.77
742.464	4292.77
742.716	4171.77
742.968	4261.77
743.22	4189.77
743.472	4075.77
743.724	4160.77
743.976	4288.77
744.228	4314.77
744.48	4093.77
744.732	4105.77
744.983	4256.77
745.235	4179.77
745.487	4123.77
745.739	4166.77
745.991	4186.77
746.243	4222.77
746.495	4039.77
746.747	4070.77
746.999	4143.77
747.25	4168.77
747.502	4108.77
747.754	4164.77
748.006	4134.77
748.258	4214.77
748.51	4224.77
748.761	4052.77
749.013	4096.77
749.265	4168.77
749.517	4185.77
749.768	4229.77
750.02	4211.77
750.272	4088.77
750.524	3924.77
750.776	3913.77
751.027	4107.77
751.279	4118.77
751.531	3913.77
751.782	3994.77
752.034	4115.77
752.286	3992.77
752.538	3827.77
752.789	3949.77
753.041	4015.77
753.293	3959.77
753.544	3877.77
753.796	3933.77
754.048	4001.77
754.299	4013.77
754.551	3944.77
754.803	3887.77
755.054	3927.77
755.306	3945.77
755.558	3794.77
755.809	3849.77
756.061	4042.77
756.312	3930.77
756.564	3855.77
756.816	3857.77
757.067	3844.77
757.319	3817.77
757.57	3775.77
757.822	3858.77
758.073	3935.77
758.325	3890.77
758.577	3707.77
758.828	3714.77
759.08	3918.77
759.331	3899.77
759.583	3698.77
759.834	3818.77
760.086	3803.77
760.337	3718.77
760.589	3658.77
760.84	3714.77
761.092	3731.77
761.343	3661.77
761.595	3542.77
761.846	3670.77
762.097	3681.77
762.349	3657.77
762.6	3515.77
762.852	3646.77
763.103	3779.77
763.355	3616.77
763.606	3528.77
763.857	3690.77
764.109	3802.77
764.36	3646.77
764.612	3510.77
764.863	3609.77
765.114	3615.77
765.366	3514.77
765.617	3432.77
765.868	3461.77
766.12	3616.77
766.371	3631.77
766.622	3412.77
766.874	3489.77
767.125	3632.77
767.376	3526.77
767.628	3416.77
767.879	3465.77
768.13	3557.77
768.381	3565.77
768.633	3477.77
768.884	3459.77
769.135	3531.77
769.386	3527.77
769.638	3456.77
769.889	3453.77
770.14	3469.77
770.391	3393.77
770.643	3351.77
770.894	3302.77
771.145	3429.77
771.396	3355.77
771.647	3275.77
771.899	3373.77
772.15	3436.77
772.401	3366.77
772.652	3244.77
772.903	3277.77
773.154	3641.77
773.406	3895.77
773.657	3282.77
773.908	3289.77
774.159	3377.77
774.41	3388.77
774.661	3217.77
774.912	3275.77
775.163	3439.77
775.414	3392.77
775.666	3097.77
775.917	3113.77
776.168	3213.77
776.419	3212.77
776.67	3123.77
776.921	3131.77
777.172	3203.77
777.423	3209.77
777.674	3235.77
777.925	3217.77
778.176	3149.77
778.427	3146.77
778.678	3071.77
778.929	3089.77
779.18	3158.77
779.431	3092.77
779.682	3107.77
779.933	3109.77
780.184	3146.77
780.435	3120.77
780.686	3097.77
780.937	3116.77
781.188	3164.77
781.439	3251.77
781.69	3174.77
781.941	3083.77
782.191	3068.77
782.442	3067.77
782.693	2976.77
782.944	2980.77
783.195	3039.77
783.446	3038.77
783.697	3063.77
783.948	2976.77
784.199	3009.77
784.449	2961.77
784.7	2903.77
784.951	2957.77
785.202	3154.77
785.453	3083.77
785.704	2868.77
785.954	2870.77
786.205	2932.77
786.456	2872.77
786.707	2792.77
786.958	2826.77
787.208	2952.77
787.459	2892.77
787.71	2876.77
787.961	2862.77
788.211	2931.77
788.462	2911.77
788.713	2830.77
788.964	2830.77
789.214	2950.77
789.465	2949.77
789.716	2864.77
789.967	2879.77
790.217	2835.77
790.468	2805.77
790.719	2763.77
790.969	2790.77
791.22	2839.77
791.471	2916.77
791.721	2910.77
791.972	2764.77
792.223	2831.77
792.473	2769.77
792.724	2747.77
792.975	2730.77
793.225	2808.77
793.476	2766.77
793.726	2707.77
793.977	2805.77
794.228	2909.77
794.478	2767.77
794.729	2677.77
794.979	2767.77
795.23	2816.77
795.481	2731.77
795.731	2615.77
795.982	2703.77
796.232	2686.77
796.483	2617.77
796.733	2575.77
796.984	2636.77
797.234	2685.77
797.485	2712.77
797.735	2568.77
797.986	2586.77
798.236	2703.77
798.487	2614.77
798.737	2601.77
798.988	2718.77
799.238	2762.77
799.489	2619.77
799.739	2517.77
799.99	2573.77
800.24	2674.77
800.491	2736.77
800.741	2596.77
800.991	2508.77
801.242	2572.77
801.492	2585.77
801.743	2531.77
801.993	2766.77
802.244	2951.77
802.494	2578.77
802.744	2489.77
802.995	2517.77
803.245	2557.77
803.495	2543.77
803.746	2481.77
803.996	2567.77
804.246	2565.77
804.497	2577.77
804.747	2424.77
804.997	2481.77
805.248	2492.77
805.498	2463.77
805.748	2476.77
805.999	2391.77
806.249	2440.77
806.499	2412.77
806.75	2342.77
807	2367.77
807.25	2437.77
807.5	2385.77
807.751	2394.77
808.001	2438.77
808.251	2455.77
808.501	2551.77
808.752	2517.77
809.002	2437.77
809.252	2471.77
809.502	2427.77
809.752	2359.77
810.003	2303.77
810.253	2367.77
810.503	2414.77
810.753	2435.77
811.003	2432.77
811.254	2427.77
811.504	2359.77
811.754	2330.77
812.004	2339.77
812.254	2565.77
812.504	2414.77
812.754	2335.77
813.005	2397.77
813.255	2493.77
813.505	2389.77
813.755	2264.77
814.005	2345.77
814.255	2357.77
814.505	2349.77
814.755	2221.77
815.005	2241.77
815.255	2333.77
815.505	2285.77
815.756	2332.77
816.006	2300.77
816.256	2253.77
816.506	2212.77
816.756	2169.77
817.006	2232.77
817.256	2315.77
817.506	2278.77
817.756	2209.77
818.006	2231.77
818.256	2231.77
818.506	2239.77
818.756	2142.77
819.006	2195.77
819.256	2269.77
819.506	2181.77
819.756	2139.77
820.006	2241.77
820.255	2273.77
820.505	2218.77
820.755	2097.77
821.005	2154.77
821.255	2271.77
821.505	2199.77
821.755	2149.77
822.005	2195.77
822.255	2279.77
822.505	2196.77
822.755	2186.77
823.004	2061.77
823.254	2085.77
823.504	2190.77
823.754	2182.77
824.004	2099.77
824.254	2201.77
824.504	2172.77
824.753	2200.77
825.003	2192.77
825.253	2228.77
825.503	2131.77
825.753	2091.77
826.002	2203.77
826.252	2353.77
826.502	2123.77
826.752	2037.77
827.002	2070.77
827.251	2189.77
827.501	2108.77
827.751	1994.77
828.001	2036.77
828.25	2138.77
828.5	1988.77
828.75	1977.77
829	2074.77
829.249	2185.77
829.499	2030.77
829.749	2005.77
829.998	2090.77
830.248	2143.77
830.498	2001.77
830.748	2018.77
830.997	2074.77
831.247	2142.77
831.497	2137.77
831.746	2025.77
831.996	2122.77
832.246	2200.77
832.495	2185.77
832.745	1934.77
832.994	1948.77
833.244	2084.77
833.494	2000.77
833.743	1920.77
833.993	1980.77
834.243	2032.77
834.492	2003.77
834.742	1994.77
834.991	1977.77
835.241	2146.77
835.49	1998.77
835.74	1881.77
835.99	1939.77
836.239	2046.77
836.489	2057.77
836.738	1949.77
836.988	1844.77
837.237	1956.77
837.487	2066.77
837.736	1929.77
837.986	1914.77
838.235	1983.77
838.485	1963.77
838.734	1898.77
838.984	1957.77
839.233	1921.77
839.483	1827.77
839.732	1811.77
839.982	1887.77
840.231	1951.77
840.481	1951.77
840.73	1830.77
840.979	1881.77
841.229	1891.77
841.478	1862.77
841.728	1752.77
841.977	1698.77
842.227	1784.77
842.476	1774.77
842.725	1771.77
842.975	1828.77
843.224	1901.77
843.474	1948.77
843.723	1828.77
843.972	1802.77
844.222	1864.77
844.471	1927.77
844.72	1788.77
844.97	1774.77
845.219	1870.77
845.468	1855.77
845.718	1760.77
845.967	1782.77
846.216	1845.77
846.466	1901.77
846.715	1767.77
846.964	1750.77
847.214	1731.77
847.463	1704.77
847.712	1723.77
847.961	1690.77
848.211	1793.77
848.46	1763.77
848.709	1717.77
848.958	1671.77
849.208	1728.77
849.457	1704.77
849.706	1732.77
849.955	1696.77
850.205	1680.77
850.454	1801.77
850.703	1818.77
850.952	1744.77
851.201	1820.77
851.451	1720.77
851.7	1738.77
851.949	1627.77
852.198	1692.77
852.447	1674.77
852.696	1610.77
852.946	1655.77
853.195	1754.77
853.444	1763.77
853.693	1551.77
853.942	1525.77
854.191	1668.77
854.44	1717.77
854.689	1638.77
854.939	1572.77
855.188	1549.77
855.437	1619.77
855.686	1605.77
855.935	1624.77
856.184	1661.77
856.433	1681.77
856.682	1642.77
856.931	1589.77
857.18	1612.77
857.429	1543.77
857.678	1495.77
857.927	1541.77
858.176	1595.77
858.425	1534.77
858.674	1418.77
858.924	1489.77
859.173	1535.77
859.422	1579.77
859.671	1437.77
859.92	1493.77
860.169	1536.77
860.417	1568.77
860.666	1496.77
860.915	1452.77
861.164	1494.77
861.413	1463.77
861.662	1394.77
861.911	1425.77
862.16	1555.77
862.409	1523.77
862.658	1361.77
862.907	1404.77
863.156	1513.77
863.405	1500.77
863.654	1392.77
863.903	1351.77
864.151	1442.77
864.4	1460.77
864.649	1391.77
864.898	1436.77
865.147	1507.77
865.396	1523.77
865.645	1384.77
865.894	1421.77
866.142	1541.77
866.391	1451.77
866.64	1342.77
866.889	1430.77
867.138	1611.77
867.387	1477.77
867.635	1354.77
867.884	1414.77
868.133	1521.77
868.382	1430.77
868.631	1301.77
868.879	1320.77
869.128	1384.77
869.377	1364.77
869.626	1302.77
869.874	1316.77
870.123	1427.77
870.372	1381.77
870.621	1248.77
870.869	1262.77
871.118	1391.77
871.367	1384.77
871.616	1263.77
871.864	1344.77
872.113	1372.77
872.362	1351.77
872.61	1305.77
872.859	1366.77
873.108	1399.77
873.357	1308.77
873.605	1214.77
873.854	1244.77
874.103	1276.77
874.351	1297.77
874.6	1250.77
874.848	1284.77
875.097	1337.77
875.346	1310.77
875.594	1195.77
875.843	1310.77
876.092	1431.77
876.34	1323.77
876.589	1209.77
876.837	1125.77
877.086	1239.77
877.335	1300.77
877.583	1210.77
877.832	1239.77
878.08	1366.77
878.329	1259.77
878.578	1180.77
878.826	1215.77
879.075	1291.77
879.323	1285.77
879.572	1179.77
879.82	1324.77
880.069	1285.77
880.317	1281.77
880.566	1164.77
880.814	1255.77
881.063	1354.77
881.311	1262.77
881.56	1284.77
881.808	1179.77
882.057	1242.77
882.305	1216.77
882.554	1217.77
882.802	1098.77
883.051	1173.77
883.299	1187.77
883.548	1130.77
883.796	1231.77
884.045	1233.77
884.293	1154.77
884.541	1030.77
884.79	1020.77
885.038	1117.77
885.287	1124.77
885.535	1137.77
885.783	1167.77
886.032	1112.77
886.28	1081.77
886.529	1035.77
886.777	1097.77
887.025	1259.77
887.274	1141.77
887.522	1077.77
887.77	1109.77
888.019	1108.77
888.267	1065.77
888.516	991.77
888.764	1022.77
889.012	1101.77
889.261	1063.77
889.509	974.77
889.757	1021.77
890.005	1056.77
890.254	991.77
890.502	999.77
890.75	1217.77
890.999	1241.77
891.247	1123.77
891.495	1067.77
891.743	1045.77
891.992	1179.77
892.24	1104.77
892.488	977.77
892.737	984.77
892.985	1061.77
893.233	1046.77
893.481	977.77
893.729	967.77
893.978	1118.77
894.226	1111.77
894.474	996.77
894.722	965.77
894.97	992.77
895.219	969.77
895.467	971.77
895.715	1009.77
895.963	1023.77
896.211	960.77
896.46	860.77
896.708	982.77
896.956	1072.77
897.204	1126.77
897.452	1026.77
897.7	940.77
897.948	1008.77
898.197	979.77
898.445	903.77
898.693	906.77
898.941	996.77
899.189	967.77
899.437	910.77
899.685	1020.77
899.933	975.77
900.181	981.77
900.43	892.77
900.678	920.77
900.926	982.77
901.174	945.77
901.422	888.77
901.67	896.77
901.918	978.77
902.166	956.77
902.414	786.77
902.662	831.77
902.91	952.77
903.158	924.77
903.406	857.77
903.654	882.77
903.902	924.77
904.15	873.77
904.398	748.77
904.646	865.77
904.894	949.77
905.142	948.77
905.39	886.77
905.638	831.77
905.886	871.77
906.134	867.77
906.382	854.77
906.63	803.77
906.878	921.77
907.126	902.77
907.374	812.77
907.622	804.77
907.869	906.77
908.117	881.77
908.365	808.77
908.613	800.77
908.861	834.77
909.109	774.77
909.357	741.77
909.605	796.77
909.853	873.77
910.1	813.77
910.348	639.77
910.596	694.77
910.844	860.77
911.092	894.77
911.34	780.77
911.588	806.77
911.835	847.77
912.083	824.77
912.331	817.77
912.579	851.77
912.827	1005.77
913.075	865.77
913.322	720.77
913.57	724.77
913.818	854.77
914.066	807.77
914.313	714.77
914.561	770.77
914.809	800.77
915.057	754.77
915.305	749.77
915.552	752.77
915.8	839.77
916.048	744.77
916.296	681.77
916.543	776.77
916.791	860.77
917.039	766.77
917.286	649.77
917.534	700.77
917.782	814.77
918.03	704.77
918.277	620.77
918.525	620.77
918.773	723.77
919.02	740.77
919.268	671.77
919.516	695.77
919.763	702.77
920.011	683.77
920.259	578.77
920.506	688.77
920.754	794.77
921.002	766.77
921.249	718.77
921.497	659.77
921.745	686.77
921.992	728.77
922.24	577.77
922.487	713.77
922.735	865.77
922.983	792.77
923.23	692.77
923.478	625.77
923.725	699.77
923.973	708.77
924.221	688.77
924.468	737.77
924.716	722.77
924.963	682.77
925.211	622.77
925.458	680.77
925.706	796.77
925.953	836.77
926.201	627.77
926.448	617.77
926.696	722.77
926.944	681.77
927.191	597.77
927.439	609.77
927.686	629.77
927.934	657.77
928.181	554.77
928.429	550.77
928.676	613.77
928.923	547.77
929.171	510.77
929.418	647.77
929.666	714.77
929.913	691.77
930.161	502.77
930.408	534.77
930.656	608.77
930.903	635.77
931.151	495.77
931.398	555.77
931.645	649.77
931.893	547.77
932.14	523.77
932.388	548.77
932.635	691.77
932.882	753.77
933.13	613.77
933.377	526.77
933.625	620.77
933.872	551.77
934.119	486.77
934.367	535.77
934.614	523.77
934.861	515.77
935.109	508.77
935.356	576.77
935.603	638.77
935.851	548.77
936.098	471.77
936.345	569.77
936.593	591.77
936.84	532.77
937.087	413.77
937.335	479.77
937.582	557.77
937.829	557.77
938.077	520.77
938.324	495.77
938.571	571.77
938.818	493.77
939.066	433.77
939.313	425.77
939.56	547.77
939.807	562.77
940.055	425.77
940.302	470.77
940.549	644.77
940.796	555.77
941.044	479.77
941.291	497.77
941.538	645.77
941.785	535.77
942.033	472.77
942.28	539.77
942.527	579.77
942.774	542.77
943.021	399.77
943.269	440.77
943.516	528.77
943.763	544.77
944.01	489.77
944.257	564.77
944.504	616.77
944.752	579.77
944.999	516.77
945.246	462.77
945.493	516.77
945.74	497.77
945.987	410.77
946.234	489.77
946.482	571.77
946.729	472.77
946.976	405.77
947.223	433.77
947.47	598.77
947.717	553.77
947.964	565.77
948.211	518.77
948.458	547.77
948.705	478.77
948.952	399.77
949.2	480.77
949.447	608.77
949.694	599.77
949.941	423.77
950.188	403.77
950.435	428.77
950.682	468.77
950.929	334.77
951.176	389.77
951.423	551.77
951.67	521.77
951.917	477.77
952.164	473.77
952.411	532.77
952.658	599.77
952.905	441.77
953.152	361.77
953.399	469.77
953.646	464.77
953.893	366.77
954.14	407.77
954.387	451.77
954.634	426.77
954.881	371.77
955.128	430.77
955.375	426.77
955.622	411.77
955.869	400.77
956.115	369.77
956.362	463.77
956.609	451.77
956.856	371.77
957.103	385.77
957.35	471.77
957.597	497.77
957.844	416.77
958.091	401.77
958.338	471.77
958.585	412.77
958.831	228.77
959.078	317.77
959.325	473.77
959.572	366.77
959.819	296.77
960.066	259.77
960.313	391.77
960.559	390.77
960.806	267.77
961.053	312.77
961.3	455.77
961.547	477.77
961.794	282.77
962.04	435.77
962.287	451.77
962.534	315.77
962.781	289.77
963.028	365.77
963.274	480.77
963.521	382.77
963.768	293.77
964.015	344.77
964.262	506.77
964.508	356.77
964.755	249.77
965.002	291.77
965.249	352.77
965.495	276.77
965.742	228.77
965.989	260.77
966.236	388.77
966.482	301.77
966.729	255.77
966.976	247.77
967.222	306.77
967.469	330.77
967.716	252.77
967.963	250.77
968.209	320.77
968.456	309.77
968.703	201.77
968.949	286.77
969.196	456.77
969.443	441.77
969.689	223.77
969.936	195.77
970.183	298.77
970.429	248.77
970.676	210.77
970.923	287.77
971.169	334.77
971.416	268.77
971.663	234.77
971.909	308.77
972.156	369.77
972.402	350.77
972.649	264.77
972.896	284.77
973.142	315.77
973.389	333.77
973.635	230.77
973.882	343.77
974.129	418.77
974.375	295.77
974.622	192.77
974.868	192.77
975.115	261.77
975.361	222.77
975.608	208.77
975.855	337.77
976.101	380.77
976.348	284.77
976.594	229.77
976.841	280.77
977.087	276.77
977.334	317.77
977.58	181.77
977.827	166.77
978.073	315.77
978.32	279.77
978.566	153.77
978.813	262.77
979.059	299.77
979.306	257.77
979.552	141.77
979.799	218.77
980.045	223.77
980.292	212.77
980.538	148.77
980.785	153.77
981.031	188.77
981.278	172.77
981.524	113.77
981.771	255.77
982.017	392.77
982.263	316.77
982.51	176.77
982.756	230.77
983.003	306.77
983.249	240.77
983.495	152.77
983.742	147.77
983.988	207.77
984.235	241.77
984.481	144.77
984.727	127.77
984.974	262.77
985.22	253.77
985.467	185.77
985.713	187.77
985.959	300.77
986.206	269.77
986.452	181.77
986.698	213.77
986.945	238.77
987.191	276.77
987.437	275.77
987.684	212.77
987.93	359.77
988.176	269.77
988.423	98.77
988.669	177.77
988.915	348.77
989.162	175.77
989.408	78.77
989.654	154.77
989.901	196.77
990.147	195.77
990.393	187.77
990.639	240.77
990.886	288.77
991.132	348.77
991.378	278.77
991.625	393.77
991.871	368.77
992.117	260.77
992.363	177.77
992.61	210.77
992.856	331.77
993.102	200.77
993.348	149.77
993.594	188.77
993.841	216.77
994.087	313.77
994.333	195.77
994.579	184.77
994.826	222.77
995.072	224.77
995.318	20.77
995.564	84.77
995.81	225.77
996.057	188.77
996.303	77.77
996.549	105.77
996.795	203.77
997.041	186.77
997.287	140.77
997.534	135.77
997.78	198.77
998.026	221.77
998.272	95.77
998.518	81.77
998.764	225.77
999.01	259.77
999.256	153.77
999.503	99.77
999.749	128.77
999.995	87.77
1000.241	85.77
1000.487	156.77
1000.733	199.77
1000.979	175.77
1001.225	131.77
1001.471	198.77
1001.718	237.77
1001.964	275.77
1002.21	102.77
1002.456	128.77
1002.702	298.77
1002.948	213.77
1003.194	123.77
1003.44	102.77
1003.686	187.77
1003.932	138.77
1004.178	90.77
1004.424	145.77
1004.67	294.77
1004.916	279.77
1005.162	175.77
1005.408	120.77
1005.654	256.77
1005.9	91.77
1006.146	35.77
1006.392	91.77
1006.638	183.77
1006.884	152.77
1007.13	68.77
1007.376	41.77
1007.622	204.77
1007.868	232.77
1008.114	110.77
1008.36	179.77
1008.606	192.77
1008.852	215.77
1009.098	171.77
1009.344	201.77
1009.59	180.77
1009.836	34.77
1010.082	-36.23
1010.328	75.77
1010.574	148.77
1010.82	74.77
1011.065	-10.23
1011.311	3.77
1011.557	128.77
1011.803	99.77
1012.049	18.77
1012.295	70.77
1012.541	111.77
1012.787	124.77
1013.033	-17.23
1013.278	-36.23
1013.524	124.77
1013.77	205.77
1014.016	95.77
1014.262	94.77
1014.508	192.77
1014.754	30.77
1015	8.77
1015.245	181.77
1015.491	191.77
1015.737	142.77
1015.983	22.77
1016.229	-6.23
1016.475	120.77
1016.72	239.77
1016.966	236.77
1017.212	135.77
1017.458	197.77
1017.704	110.77
1017.949	4.77
1018.195	165.77
1018.441	259.77
1018.687	204.77
1018.933	44.77
1019.178	30.77
1019.424	208.77
1019.67	220.77
1019.916	9.77
1020.161	50.77
1020.407	130.77
1020.653	66.77
1020.899	-5.23
1021.144	75.77
1021.39	147.77
1021.636	43.77
1021.882	-43.23
1022.127	62.77
1022.373	229.77
1022.619	165.77
1022.865	36.77
1023.11	47.77
1023.356	170.77
1023.602	113.77
1023.847	40.77
1024.093	77.77
1024.339	52.77
1024.584	32.77
1024.83	19.77
1025.076	23.77
1025.321	149.77
1025.567	119.77
1025.813	10.77
1026.058	77.77
1026.304	125.77
1026.55	53.77
1026.795	42.77
1027.041	24.77
1027.287	96.77
1027.532	140.77
1027.778	108.77
1028.024	64.77
1028.269	95.77
1028.515	19.77
1028.76	-40.23
1029.006	43.77
1029.252	160.77
1029.497	71.77
1029.743	43.77
1029.989	-5.23
1030.234	127.77
1030.48	190.77
1030.725	4.77
1030.971	55.77
1031.216	166.77
1031.462	90.77
1031.708	-44.23
1031.953	-19.23
1032.199	59.77
1032.444	83.77
1032.69	23.77
1032.935	5.77
1033.181	132.77
1033.426	28.77
1033.672	-119.23
1033.918	-60.23
1034.163	51.77
1034.409	38.77
1034.654	-6.23
1034.9	92.77
1035.145	128.77
1035.391	58.77
1035.636	-59.23
1035.882	31.77
1036.127	21.77
1036.373	-21.23
1036.618	-115.23
1036.864	-14.23
1037.109	125.77
1037.355	34.77
1037.6	-36.23
1037.845	0.77
1038.091	198.77
1038.336	137.77
1038.582	149.77
1038.827	239.77
1039.073	76.77
1039.318	-18.23
1039.564	-116.23
1039.809	-31.23
1040.055	142.77
1040.3	149.77
1040.545	-12.23
1040.791	-26.23
1041.036	37.77
1041.282	67.77
1041.527	125.77
1041.772	-47.23
1042.018	12.77
1042.263	50.77
1042.509	-94.23
1042.754	-58.23
1042.999	47.77
1043.245	30.77
1043.49	-126.23
1043.736	-62.23
1043.981	33.77
1044.226	46.77
1044.472	23.77
1044.717	14.77
1044.962	134.77
1045.208	37.77
1045.453	-176.23
1045.698	-91.23
1045.944	121.77
1046.189	93.77
1046.434	-31.23
1046.68	-34.23
1046.925	152.77
1047.17	-2.23
1047.416	-174.23
1047.661	-58.23
1047.906	92.77
1048.152	71.77
1048.397	-44.23
1048.642	-55.23
1048.887	138.77
1049.133	141.77
1049.378	-28.23
1049.623	-38.23
1049.869	72.77
1050.114	4.77
1050.359	-74.23
1050.604	-8.23
1050.85	154.77
1051.095	27.77
1051.34	-70.23
1051.585	1.77
1051.831	198.77
1052.076	20.77
1052.321	-180.23
1052.566	-68.23
1052.812	115.77
1053.057	31.77
1053.302	-39.23
1053.547	47.77
1053.792	98.77
1054.038	83.77
1054.283	-132.23
1054.528	-42.23
1054.773	33.77
1055.018	21.77
1055.264	-90.23
1055.509	-119.23
1055.754	22.77
1055.999	-38.23
1056.244	-132.23
1056.49	-52.23
1056.735	48.77
1056.98	1.77
1057.225	-111.23
1057.47	73.77
1057.715	7.77
1057.96	-76.23
1058.206	-119.23
1058.451	-3.23
1058.696	125.77
1058.941	55.77
1059.186	-134.23
1059.431	-96.23
1059.676	113.77
1059.922	48.77
1060.167	123.77
1060.412	311.77
1060.657	79.77
1060.902	25.77
1061.147	-144.23
1061.392	-69.23
1061.637	71.77
1061.882	-5.23
1062.127	-138.23
1062.373	-121.23
1062.618	127.77
1062.863	152.77
1063.108	-43.23
1063.353	-101.23
1063.598	-17.23
1063.843	-35.23
1064.088	-100.23
1064.333	-117.23
1064.578	33.77
1064.823	54.77
1065.068	-168.23
1065.313	-104.23
1065.558	58.77
1065.803	61.77
1066.048	-133.23
1066.293	-130.23
1066.538	67.77
1066.783	3.77
1067.028	-180.23
1067.273	-145.23
1067.518	28.77
1067.763	-38.23
1068.008	-192.23
1068.253	-115.23
1068.498	73.77
1068.743	28.77
1068.988	-134.23
1069.233	-119.23
1069.478	77.77
1069.723	129.77
1069.968	-70.23
1070.213	-16.23
1070.458	86.77
1070.703	-15.23
1070.948	-182.23
1071.193	-72.23
1071.438	64.77
1071.683	84.77
1071.928	-42.23
1072.173	-50.23
1072.418	37.77
1072.663	-20.23
1072.908	-152.23
1073.152	-88.23
1073.397	65.77
1073.642	-19.23
1073.887	-65.23
1074.132	30.77
1074.377	24.77
1074.622	-0.23
1074.867	-136.23
1075.112	-58.23
1075.357	145.77
1075.601	-9.23
1075.846	-70.23
1076.091	40.77
1076.336	81.77
1076.581	-74.23
1076.826	-172.23
1077.071	-65.23
1077.315	176.77
1077.56	107.77
1077.805	-101.23
1078.05	-71.23
1078.295	-6.23
1078.54	-45.23
1078.785	-173.23
1079.029	-107.23
1079.274	68.77
1079.519	-68.23
1079.764	-173.23
1080.009	-46.23
1080.253	36.77
1080.498	-69.23
1080.743	-212.23
1080.988	-56.23
1081.233	143.77
1081.478	85.77
1081.722	-111.23
1081.967	-2.23
1082.212	143.77
1082.457	11.77
1082.701	-99.23
1082.946	-68.23
1083.191	44.77
1083.436	-64.23
1083.681	-208.23
1083.925	-103.23
1084.17	1.77
1084.415	29.77
1084.66	-179.23
1084.904	-79.23
1085.149	-0.23
1085.394	-44.23
1085.639	-212.23
1085.883	-108.23
1086.128	147.77
1086.373	161.77
1086.617	-70.23
1086.862	-147.23
1087.107	-11.23
1087.352	-63.23
1087.596	-155.23
1087.841	-29.23
1088.086	31.77
1088.33	12.77
1088.575	-227.23
1088.82	-96.23
1089.064	71.77
1089.309	-69.23
1089.554	-191.23
1089.798	-152.23
1090.043	44.77
1090.288	-10.23
1090.533	-193.23
1090.777	-110.23
1091.022	24.77
1091.266	55.77
1091.511	-127.23
1091.756	-49.23
1092	108.77
1092.245	97.77
1092.49	-147.23
1092.734	-90.23
1092.979	105.77
1093.224	-31.23
1093.468	-175.23
1093.713	-123.23
1093.957	11.77
1094.202	-40.23
1094.447	-215.23
1094.691	-90.23
1094.936	43.77
1095.181	-8.23
1095.425	-172.23
1095.67	-134.23
1095.914	24.77
1096.159	13.77
1096.403	-149.23
1096.648	-57.23
1096.893	62.77
1097.137	-84.23
1097.382	-227.23
1097.626	-143.23
1097.871	27.77
1098.115	-40.23
1098.36	-206.23
1098.605	-123.23
1098.849	-48.23
1099.094	-116.23
1099.338	-193.23
1099.583	-96.23
1099.827	129.77
1100.072	35.77
1100.316	-172.23
1100.561	-108.23
1100.805	41.77
1101.05	17.77
1101.294	-185.23
1101.539	-162.23
1101.783	8.77
1102.028	7.77
1102.273	-167.23
1102.517	-88.23
1102.761	53.77
1103.006	-59.23
1103.25	-280.23
1103.495	-171.23
1103.739	35.77
1103.984	94.77
1104.228	-98.23
1104.473	-25.23
1104.717	39.77
1104.962	-10.23
1105.206	-124.23
1105.451	-161.23
1105.695	25.77
1105.94	-7.23
1106.184	-143.23
1106.429	-92.23
1106.673	1.77
1106.917	66.77
1107.162	-165.23
1107.406	-25.23
1107.651	118.77
1107.895	-87.23
1108.14	-200.23
1108.384	-109.23
1108.628	119.77
1108.873	105.77
1109.117	-135.23
1109.362	-112.23
1109.606	-18.23
1109.85	-31.23
1110.095	-169.23
1110.339	-99.23
1110.584	93.77
1110.828	36.77
1111.072	-96.23
1111.317	-135.23
1111.561	-41.23
1111.806	-61.23
1112.05	-180.23
1112.294	-87.23
1112.539	8.77
1112.783	-28.23
1113.027	-127.23
1113.272	-119.23
1113.516	-35.23
1113.76	-54.23
1114.005	-147.23
1114.249	-88.23
1114.493	60.77
1114.738	80.77
1114.982	-49.23
1115.226	-86.23
1115.471	-9.23
1115.715	-9.23
1115.959	-185.23
1116.204	-164.23
1116.448	7.77
1116.692	-94.23
1116.937	-180.23
1117.181	-18.23
1117.425	-27.23
1117.67	-84.23
1117.914	-159.23
1118.158	-92.23
1118.402	131.77
1118.647	37.77
1118.891	-93.23
1119.135	-32.23
1119.38	103.77
1119.624	7.77
1119.868	-146.23
1120.112	-155.23
1120.357	-74.23
1120.601	-123.23
1120.845	-214.23
1121.089	-139.23
1121.334	30.77
