Data from HR4C21111__30__09-59-24-848.txt Node

Date: Mon Feb 22 09:59:24 IST 2021
User: Kapil
Spectrometer: HR4C2111
Trigger mode: 4
Integration Time (sec): 2.300000E0
Scans to average: 1
Electric dark correction enabled: true
Nonlinearity correction enabled: false
Boxcar width: 0
XAxis mode: Wavelengths
Number of Pixels in Spectrum: 3648
>>>>>Begin Spectral Data<<<<<
189.472	-469.08
189.745	-469.08
190.017	-469.08
190.289	-466.08
190.561	-303.08
190.834	-31.08
191.106	-123.08
191.378	12.92
191.65	12.92
191.923	-135.08
192.195	-92.08
192.467	132.92
192.739	106.92
193.011	-22.08
193.284	82.92
193.556	171.92
193.828	-13.08
194.1	-104.08
194.372	-120.08
194.644	60.92
194.916	60.92
195.188	-153.08
195.46	-80.08
195.732	41.92
196.004	-21.08
196.276	-99.08
196.548	-47.08
196.82	55.92
197.092	44.92
197.364	-128.08
197.636	-92.08
197.908	21.92
198.18	-40.08
198.452	-100.08
198.724	-50.08
198.996	53.92
199.268	75.92
199.54	-27.08
199.811	-116.08
200.083	92.92
200.355	7.92
200.627	-204.08
200.899	-70.08
201.171	50.92
201.442	-58.08
201.714	-181.08
201.986	-95.08
202.258	57.92
202.529	118.92
202.801	-2.08
203.073	64.92
203.345	181.92
203.616	7.92
203.888	-154.08
204.16	-161.08
204.431	70.92
204.703	-23.08
204.974	-153.08
205.246	-6.08
205.518	180.92
205.789	-8.08
206.061	-146.08
206.332	-121.08
206.604	5.92
206.876	82.92
207.147	127.92
207.419	21.92
207.69	140.92
207.962	-30.08
208.233	-172.08
208.505	16.92
208.776	196.92
209.047	85.92
209.319	-129.08
209.59	-89.08
209.862	113.92
210.133	-28.08
210.404	-158.08
210.676	-104.08
210.947	80.92
211.219	68.92
211.49	-141.08
211.761	-74.08
212.033	28.92
212.304	-37.08
212.575	-183.08
212.846	-93.08
213.118	16.92
213.389	-60.08
213.66	-107.08
213.931	-55.08
214.203	30.92
214.474	-36.08
214.745	-130.08
215.016	117.92
215.287	421.92
215.559	59.92
215.83	-122.08
216.101	-66.08
216.372	2.92
216.643	57.92
216.914	-5.08
217.185	-82.08
217.456	140.92
217.727	27.92
217.998	-154.08
218.269	-64.08
218.54	28.92
218.811	2.92
219.082	-95.08
219.353	-56.08
219.624	-10.08
219.895	-38.08
220.166	-138.08
220.437	-129.08
220.708	93.92
220.979	0.92
221.25	-137.08
221.521	-99.08
221.792	36.92
222.063	83.92
222.334	18.92
222.604	162.92
222.875	163.92
223.146	90.92
223.417	-159.08
223.688	-23.08
223.958	127.92
224.229	-58.08
224.5	-195.08
224.771	-91.08
225.041	67.92
225.312	45.92
225.583	-109.08
225.854	-57.08
226.124	80.92
226.395	-20.08
226.666	-131.08
226.936	-109.08
227.207	54.92
227.478	-52.08
227.748	-109.08
228.019	42.92
228.289	236.92
228.56	-44.08
228.831	-44.08
229.101	39.92
229.372	46.92
229.642	-24.08
229.913	-163.08
230.183	-136.08
230.454	-4.08
230.724	2.92
230.995	-94.08
231.265	-67.08
231.536	69.92
231.806	43.92
232.076	-126.08
232.347	-129.08
232.617	19.92
232.888	19.92
233.158	-65.08
233.428	-124.08
233.699	-12.08
233.969	-45.08
234.239	-165.08
234.51	-78.08
234.78	46.92
235.05	-25.08
235.321	-126.08
235.591	-81.08
235.861	66.92
236.131	-57.08
236.402	-189.08
236.672	-89.08
236.942	48.92
237.212	33.92
237.483	-65.08
237.753	-10.08
238.023	151.92
238.293	21.92
238.563	-80.08
238.833	-110.08
239.103	77.92
239.374	-20.08
239.644	-148.08
239.914	-36.08
240.184	136.92
240.454	-2.08
240.724	-165.08
240.994	-69.08
241.264	18.92
241.534	59.92
241.804	-23.08
242.074	-89.08
242.344	-36.08
242.614	-64.08
242.884	-190.08
243.154	-138.08
243.424	25.92
243.694	53.92
243.964	-97.08
244.234	-67.08
244.503	125.92
244.773	4.92
245.043	-215.08
245.313	-136.08
245.583	130.92
245.853	92.92
246.123	-177.08
246.392	-125.08
246.662	-7.08
246.932	-36.08
247.202	-184.08
247.471	-72.08
247.741	249.92
248.011	94.92
248.281	-150.08
248.55	-94.08
248.82	70.92
249.09	-6.08
249.359	-94.08
249.629	-67.08
249.899	53.92
250.168	53.92
250.438	-34.08
250.708	-109.08
250.977	76.92
251.247	53.92
251.516	-113.08
251.786	-45.08
252.055	113.92
252.325	4.92
252.595	-89.08
252.864	-48.08
253.134	54.92
253.403	-28.08
253.673	-164.08
253.942	-104.08
254.212	31.92
254.481	-5.08
254.75	-131.08
255.02	-96.08
255.289	69.92
255.559	-9.08
255.828	-122.08
256.097	-23.08
256.367	29.92
256.636	-65.08
256.906	-145.08
257.175	-25.08
257.444	233.92
257.714	46.92
257.983	-77.08
258.252	-39.08
258.521	8.92
258.791	38.92
259.06	-104.08
259.329	-41.08
259.598	56.92
259.868	-2.08
260.137	-115.08
260.406	8.92
260.675	79.92
260.944	11.92
261.214	-148.08
261.483	-70.08
261.752	168.92
262.021	6.92
262.29	-167.08
262.559	-113.08
262.828	26.92
263.097	-43.08
263.366	-208.08
263.635	-90.08
263.905	139.92
264.174	16.92
264.443	-209.08
264.712	-118.08
264.981	45.92
265.25	-41.08
265.519	-144.08
265.788	-149.08
266.057	33.92
266.325	57.92
266.594	-59.08
266.863	-117.08
267.132	8.92
267.401	-14.08
267.67	-204.08
267.939	-141.08
268.208	27.92
268.477	73.92
268.745	-120.08
269.014	-102.08
269.283	123.92
269.552	41.92
269.821	-109.08
270.089	-1.08
270.358	-0.08
270.627	-30.08
270.896	-135.08
271.164	-158.08
271.433	15.92
271.702	86.92
271.971	-139.08
272.239	-139.08
272.508	35.92
272.777	-22.08
273.045	-23.08
273.314	-39.08
273.583	80.92
273.851	-11.08
274.12	-144.08
274.388	-129.08
274.657	-9.08
274.926	-7.08
275.194	-156.08
275.463	-61.08
275.731	39.92
276	187.92
276.268	394.92
276.537	-74.08
276.805	40.92
277.074	37.92
277.342	-168.08
277.611	-104.08
277.879	118.92
278.148	34.92
278.416	-153.08
278.684	-122.08
278.953	-8.08
279.221	-18.08
279.49	-195.08
279.758	-94.08
280.026	6.92
280.295	-5.08
280.563	-129.08
280.831	728.92
281.1	1826.92
281.368	182.92
281.636	-90.08
281.904	-102.08
282.173	-0.08
282.441	-61.08
282.709	-82.08
282.977	24.92
283.246	40.92
283.514	-26.08
283.782	-69.08
284.05	27.92
284.318	81.92
284.587	-11.08
284.855	-128.08
285.123	-43.08
285.391	75.92
285.659	39.92
285.927	-141.08
286.195	-58.08
286.463	65.92
286.732	-12.08
287	-112.08
287.268	-46.08
287.536	42.92
287.804	-32.08
288.072	-147.08
288.34	-86.08
288.608	66.92
288.876	-49.08
289.144	-114.08
289.412	-6.08
289.68	61.92
289.948	-20.08
290.215	-114.08
290.483	-92.08
290.751	96.92
291.019	82.92
291.287	-176.08
291.555	-128.08
291.823	22.92
292.091	-12.08
292.358	-70.08
292.626	-30.08
292.894	71.92
293.162	52.92
293.43	-99.08
293.697	-55.08
293.965	60.92
294.233	-16.08
294.501	-160.08
294.768	-81.08
295.036	71.92
295.304	22.92
295.572	-154.08
295.839	-85.08
296.107	114.92
296.375	-8.08
296.642	-120.08
296.91	-109.08
297.178	52.92
297.445	192.92
297.713	103.92
297.98	-77.08
298.248	-28.08
298.516	-27.08
298.783	-116.08
299.051	-127.08
299.318	16.92
299.586	-34.08
299.853	-86.08
300.121	-93.08
300.388	36.92
300.656	-15.08
300.923	-144.08
301.191	-44.08
301.458	50.92
301.726	-11.08
301.993	-135.08
302.26	-87.08
302.528	42.92
302.795	-5.08
303.063	-71.08
303.33	-51.08
303.597	32.92
303.865	26.92
304.132	-127.08
304.399	-132.08
304.667	-33.08
304.934	1.92
305.201	-114.08
305.469	-9.08
305.736	43.92
306.003	39.92
306.27	-52.08
306.538	-106.08
306.805	-11.08
307.072	-25.08
307.339	-69.08
307.606	-51.08
307.874	151.92
308.141	65.92
308.408	-121.08
308.675	-92.08
308.942	-36.08
309.209	-55.08
309.477	-115.08
309.744	-95.08
310.011	31.92
310.278	54.92
310.545	-7.08
310.812	-24.08
311.079	151.92
311.346	209.92
311.613	56.92
311.88	-39.08
312.147	-74.08
312.414	-42.08
312.681	-116.08
312.948	-40.08
313.215	108.92
313.482	77.92
313.749	-90.08
314.016	-207.08
314.283	-44.08
314.55	58.92
314.817	-93.08
315.083	-127.08
315.35	-87.08
315.617	-130.08
315.884	-130.08
316.151	61.92
316.418	158.92
316.684	-18.08
316.951	-186.08
317.218	-126.08
317.485	-13.08
317.752	-66.08
318.018	-117.08
318.285	-11.08
318.552	22.92
318.819	-64.08
319.085	-135.08
319.352	-37.08
319.619	52.92
319.885	-28.08
320.152	-193.08
320.419	-98.08
320.685	22.92
320.952	-35.08
321.219	-75.08
321.485	81.92
321.752	23.92
322.019	-41.08
322.285	45.92
322.552	-7.08
322.818	145.92
323.085	-6.08
323.351	-122.08
323.618	-4.08
323.884	54.92
324.151	-59.08
324.417	-42.08
324.684	-81.08
324.95	-50.08
325.217	-147.08
325.483	-167.08
325.75	-21.08
326.016	7.92
326.283	-23.08
326.549	-171.08
326.815	-74.08
327.082	111.92
327.348	19.92
327.615	-102.08
327.881	-23.08
328.147	121.92
328.414	136.92
328.68	6.92
328.946	-33.08
329.212	46.92
329.479	17.92
329.745	-105.08
330.011	-116.08
330.278	20.92
330.544	-34.08
330.81	-27.08
331.076	-32.08
331.342	-30.08
331.609	-32.08
331.875	-79.08
332.141	-84.08
332.407	24.92
332.673	15.92
332.94	-18.08
333.206	-32.08
333.472	54.92
333.738	74.92
334.004	-111.08
334.27	-15.08
334.536	12.92
334.802	-41.08
335.068	-103.08
335.334	-1.08
335.6	34.92
335.866	-16.08
336.132	-167.08
336.398	-108.08
336.664	-32.08
336.93	-31.08
337.196	-79.08
337.462	-22.08
337.728	16.92
337.994	-34.08
338.26	-97.08
338.526	-34.08
338.792	-33.08
339.058	-26.08
339.324	-129.08
339.59	14.92
339.856	86.92
340.121	-34.08
340.387	-122.08
340.653	87.92
340.919	150.92
341.185	61.92
341.45	-52.08
341.716	47.92
341.982	129.92
342.248	-49.08
342.514	-79.08
342.779	16.92
343.045	32.92
343.311	-1.08
343.576	-68.08
343.842	-15.08
344.108	146.92
344.374	35.92
344.639	-84.08
344.905	-66.08
345.171	66.92
345.436	-57.08
345.702	-77.08
345.967	64.92
346.233	98.92
346.499	36.92
346.764	-156.08
347.03	-44.08
347.295	-1.08
347.561	30.92
347.826	-18.08
348.092	-114.08
348.357	5.92
348.623	17.92
348.888	-90.08
349.154	-76.08
349.419	82.92
349.685	40.92
349.95	-44.08
350.216	-18.08
350.481	70.92
350.747	-18.08
351.012	-142.08
351.277	-74.08
351.543	75.92
351.808	17.92
352.074	-144.08
352.339	-73.08
352.604	73.92
352.87	53.92
353.135	-77.08
353.4	-7.08
353.666	39.92
353.931	28.92
354.196	-102.08
354.461	-63.08
354.727	92.92
354.992	60.92
355.257	-76.08
355.522	31.92
355.788	69.92
356.053	119.92
356.318	-29.08
356.583	-30.08
356.848	183.92
357.113	294.92
357.379	16.92
357.644	-2.08
357.909	199.92
358.174	217.92
358.439	-44.08
358.704	29.92
358.969	155.92
359.234	172.92
359.499	17.92
359.765	67.92
360.03	167.92
360.295	166.92
360.56	13.92
360.825	101.92
361.09	310.92
361.355	125.92
361.62	94.92
361.885	139.92
362.15	109.92
362.415	132.92
362.679	71.92
362.944	235.92
363.209	266.92
363.474	283.92
363.739	211.92
364.004	109.92
364.269	198.92
364.534	263.92
364.799	214.92
365.063	207.92
365.328	318.92
365.593	293.92
365.858	194.92
366.123	204.92
366.387	331.92
366.652	278.92
366.917	188.92
367.182	238.92
367.447	410.92
367.711	361.92
367.976	285.92
368.241	350.92
368.505	421.92
368.77	327.92
369.035	316.92
369.299	404.92
369.564	430.92
369.829	380.92
370.093	351.92
370.358	333.92
370.623	454.92
370.887	488.92
371.152	338.92
371.416	428.92
371.681	470.92
371.946	376.92
372.21	367.92
372.475	523.92
372.739	564.92
373.004	521.92
373.268	486.92
373.533	563.92
373.797	614.92
374.062	610.92
374.326	467.92
374.591	558.92
374.855	647.92
375.12	584.92
375.384	431.92
375.648	542.92
375.913	723.92
376.177	749.92
376.442	633.92
376.706	647.92
376.97	767.92
377.235	747.92
377.499	731.92
377.763	755.92
378.028	758.92
378.292	819.92
378.556	750.92
378.821	671.92
379.085	797.92
379.349	759.92
379.614	699.92
379.878	822.92
380.142	1023.92
380.406	978.92
380.671	976.92
380.935	1128.92
381.199	1254.92
381.463	1118.92
381.727	1074.92
381.991	1046.92
382.256	1133.92
382.52	1132.92
382.784	1132.92
383.048	1261.92
383.312	1219.92
383.576	1205.92
383.84	1130.92
384.104	1190.92
384.369	1306.92
384.633	1224.92
384.897	1127.92
385.161	1274.92
385.425	1411.92
385.689	1367.92
385.953	1336.92
386.217	1324.92
386.481	1451.92
386.745	1490.92
387.009	1433.92
387.273	1446.92
387.537	1507.92
387.801	1537.92
388.064	1498.92
388.328	1602.92
388.592	1663.92
388.856	1645.92
389.12	1616.92
389.384	1727.92
389.648	1749.92
389.912	1841.92
390.176	1851.92
390.439	1979.92
390.703	1805.92
390.967	1796.92
391.231	1755.92
391.495	1812.92
391.758	1936.92
392.022	1987.92
392.286	1871.92
392.55	1889.92
392.813	2017.92
393.077	2083.92
393.341	2056.92
393.605	2135.92
393.868	2085.92
394.132	2104.92
394.396	2074.92
394.659	2245.92
394.923	2233.92
395.187	2189.92
395.45	2186.92
395.714	2246.92
395.978	2276.92
396.241	2307.92
396.505	2285.92
396.768	2358.92
397.032	2459.92
397.295	2485.92
397.559	2407.92
397.823	2359.92
398.086	2517.92
398.35	2472.92
398.613	2405.92
398.877	2497.92
399.14	2670.92
399.404	2745.92
399.667	2675.92
399.931	2631.92
400.194	2712.92
400.457	2690.92
400.721	2719.92
400.984	2836.92
401.248	2810.92
401.511	2782.92
401.775	2662.92
402.038	2725.92
402.301	2971.92
402.565	2982.92
402.828	2777.92
403.091	2890.92
403.355	3058.92
403.618	3033.92
403.881	3002.92
404.145	3056.92
404.408	3136.92
404.671	3071.92
404.934	3144.92
405.198	3207.92
405.461	3236.92
405.724	3290.92
405.987	3271.92
406.251	3306.92
406.514	3472.92
406.777	3352.92
407.04	3272.92
407.303	3229.92
407.567	3379.92
407.83	3462.92
408.093	3282.92
408.356	3437.92
408.619	3564.92
408.882	3601.92
409.145	3516.92
409.408	3497.92
409.672	3645.92
409.935	3547.92
410.198	3458.92
410.461	3553.92
410.724	3769.92
410.987	3716.92
411.25	3502.92
411.513	3663.92
411.776	3739.92
412.039	3612.92
412.302	3589.92
412.565	3622.92
412.828	3651.92
413.091	3664.92
413.354	3620.92
413.617	3623.92
413.879	3701.92
414.142	3711.92
414.405	3575.92
414.668	3622.92
414.931	3695.92
415.194	3666.92
415.457	3576.92
415.72	3662.92
415.983	3647.92
416.245	3720.92
416.508	3625.92
416.771	3528.92
417.034	3670.92
417.297	3690.92
417.559	3658.92
417.822	3626.92
418.085	3723.92
418.348	3694.92
418.61	3553.92
418.873	3557.92
419.136	3616.92
419.399	3615.92
419.661	3630.92
419.924	3617.92
420.187	3709.92
420.449	3688.92
420.712	3688.92
420.975	3673.92
421.237	3745.92
421.5	3771.92
421.762	3836.92
422.025	3822.92
422.288	3901.92
422.55	3771.92
422.813	3683.92
423.075	3773.92
423.338	3878.92
423.601	3951.92
423.863	3866.92
424.126	3887.92
424.388	4032.92
424.651	3992.92
424.913	3964.92
425.176	3990.92
425.438	4005.92
425.701	4006.92
425.963	3898.92
426.225	3944.92
426.488	4033.92
426.75	4029.92
427.013	4010.92
427.275	4077.92
427.538	4085.92
427.8	4104.92
428.062	4047.92
428.325	4063.92
428.587	4178.92
428.849	4168.92
429.112	4168.92
429.374	4089.92
429.636	4140.92
429.899	4235.92
430.161	4132.92
430.423	4195.92
430.686	4384.92
430.948	4390.92
431.21	4190.92
431.472	4141.92
431.735	4277.92
431.997	4312.92
432.259	4284.92
432.521	4161.92
432.783	4319.92
433.046	4332.92
433.308	4153.92
433.57	4200.92
433.832	4484.92
434.094	4297.92
434.356	4171.92
434.618	4311.92
434.881	4373.92
435.143	4464.92
435.405	4413.92
435.667	4395.92
435.929	4472.92
436.191	4450.92
436.453	4362.92
436.715	4446.92
436.977	4620.92
437.239	4636.92
437.501	4523.92
437.763	4486.92
438.025	4633.92
438.287	4559.92
438.549	4564.92
438.811	4535.92
439.073	4540.92
439.335	4556.92
439.597	4528.92
439.859	4495.92
440.121	4617.92
440.383	4549.92
440.645	4558.92
440.907	4618.92
441.168	4588.92
441.43	4532.92
441.692	4567.92
441.954	4653.92
442.216	4708.92
442.478	4662.92
442.74	4529.92
443.001	4649.92
443.263	4769.92
443.525	4593.92
443.787	4498.92
444.048	4525.92
444.31	4563.92
444.572	4596.92
444.834	4579.92
445.095	4565.92
445.357	4747.92
445.619	4595.92
445.881	4479.92
446.142	4604.92
446.404	4605.92
446.666	4642.92
446.927	4596.92
447.189	4695.92
447.451	4769.92
447.712	4584.92
447.974	4436.92
448.235	4446.92
448.497	4549.92
448.759	4545.92
449.02	4536.92
449.282	4462.92
449.543	4593.92
449.805	4688.92
450.066	4421.92
450.328	4547.92
450.59	4776.92
450.851	4606.92
451.113	4442.92
451.374	4444.92
451.636	4670.92
451.897	4705.92
452.158	4581.92
452.42	4618.92
452.681	4691.92
452.943	4523.92
453.204	4544.92
453.466	4531.92
453.727	4556.92
453.988	4620.92
454.25	4560.92
454.511	4566.92
454.773	4623.92
455.034	4740.92
455.295	4491.92
455.557	4625.92
455.818	4666.92
456.079	4635.92
456.341	4735.92
456.602	4804.92
456.863	4822.92
457.124	4693.92
457.386	4523.92
457.647	4522.92
457.908	4590.92
458.169	4733.92
458.431	4611.92
458.692	4712.92
458.953	4749.92
459.214	4740.92
459.476	4876.92
459.737	4994.92
459.998	4985.92
460.259	4869.92
460.52	4848.92
460.781	4973.92
461.043	5165.92
461.304	5072.92
461.565	4838.92
461.826	4874.92
462.087	5052.92
462.348	5212.92
462.609	5163.92
462.87	5114.92
463.131	5052.92
463.392	5266.92
463.653	5309.92
463.914	5260.92
464.175	5310.92
464.436	5339.92
464.697	5343.92
464.958	5194.92
465.219	5284.92
465.48	5383.92
465.741	5367.92
466.002	5244.92
466.263	5474.92
466.524	5506.92
466.785	5380.92
467.046	5474.92
467.307	5643.92
467.568	5735.92
467.829	5682.92
468.089	5670.92
468.35	5689.92
468.611	5598.92
468.872	5569.92
469.133	5861.92
469.394	6039.92
469.655	6133.92
469.915	5986.92
470.176	5818.92
470.437	5910.92
470.698	6115.92
470.958	6149.92
471.219	6094.92
471.48	6260.92
471.741	6364.92
472.001	6366.92
472.262	6386.92
472.523	6535.92
472.784	6640.92
473.044	6571.92
473.305	6639.92
473.566	6633.92
473.826	6820.92
474.087	6778.92
474.348	6830.92
474.608	6979.92
474.869	6965.92
475.129	6879.92
475.39	6979.92
475.651	7167.92
475.911	7314.92
476.172	7155.92
476.432	7279.92
476.693	7485.92
476.953	7393.92
477.214	7440.92
477.475	7539.92
477.735	7533.92
477.996	7684.92
478.256	7550.92
478.517	7655.92
478.777	7840.92
479.038	7984.92
479.298	8066.92
479.558	8056.92
479.819	8153.92
480.079	8208.92
480.34	8262.92
480.6	8254.92
480.861	8407.92
481.121	8443.92
481.381	8411.92
481.642	8469.92
481.902	8541.92
482.162	8573.92
482.423	8558.92
482.683	8706.92
482.943	8820.92
483.204	8806.92
483.464	8782.92
483.724	8814.92
483.985	8954.92
484.245	9042.92
484.505	8971.92
484.765	9089.92
485.026	9157.92
485.286	9261.92
485.546	9292.92
485.806	9294.92
486.067	9334.92
486.327	9331.92
486.587	9326.92
486.847	9369.92
487.107	9497.92
487.368	9519.92
487.628	9497.92
487.888	9560.92
488.148	9714.92
488.408	9597.92
488.668	9641.92
488.928	9644.92
489.188	9699.92
489.449	9839.92
489.709	9680.92
489.969	9735.92
490.229	9899.92
490.489	9943.92
490.749	9814.92
491.009	9723.92
491.269	9839.92
491.529	9865.92
491.789	9815.92
492.049	9954.92
492.309	10019.92
492.569	9930.92
492.829	9939.92
493.089	9970.92
493.349	10217.92
493.609	10109.92
493.869	9993.92
494.129	10057.92
494.389	10145.92
494.648	10083.92
494.908	10000.92
495.168	10112.92
495.428	10162.92
495.688	10076.92
495.948	9959.92
496.208	10071.92
496.467	10107.92
496.727	10104.92
496.987	10139.92
497.247	10124.92
497.507	10254.92
497.767	10254.92
498.026	10064.92
498.286	10185.92
498.546	10379.92
498.806	10277.92
499.065	10287.92
499.325	10208.92
499.585	10240.92
499.845	10217.92
500.104	10191.92
500.364	10291.92
500.624	10311.92
500.883	10211.92
501.143	10225.92
501.403	10266.92
501.662	10355.92
501.922	10383.92
502.182	10132.92
502.441	10085.92
502.701	10227.92
502.96	10357.92
503.22	10273.92
503.48	10186.92
503.739	10278.92
503.999	10199.92
504.258	10125.92
504.518	10254.92
504.777	10429.92
505.037	10391.92
505.296	10221.92
505.556	10215.92
505.815	10420.92
506.075	10483.92
506.334	10407.92
506.594	10219.92
506.853	10215.92
507.113	10239.92
507.372	10097.92
507.632	10139.92
507.891	10275.92
508.151	10349.92
508.41	10181.92
508.669	10235.92
508.929	10317.92
509.188	10243.92
509.447	10257.92
509.707	10209.92
509.966	10288.92
510.226	10366.92
510.485	10258.92
510.744	10263.92
511.004	10349.92
511.263	10274.92
511.522	10254.92
511.781	10267.92
512.041	10341.92
512.3	10304.92
512.559	10328.92
512.818	10389.92
513.078	10418.92
513.337	10396.92
513.596	10222.92
513.855	10263.92
514.115	10309.92
514.374	10291.92
514.633	10223.92
514.892	10253.92
515.151	10437.92
515.41	10448.92
515.67	10390.92
515.929	10387.92
516.188	10499.92
516.447	10423.92
516.706	10276.92
516.965	10320.92
517.224	10455.92
517.483	10478.92
517.743	10334.92
518.002	10387.92
518.261	10432.92
518.52	10437.92
518.779	10419.92
519.038	10402.92
519.297	10391.92
519.556	10381.92
519.815	10296.92
520.074	10349.92
520.333	10569.92
520.592	10526.92
520.851	10357.92
521.11	10478.92
521.369	10592.92
521.628	10461.92
521.887	10341.92
522.145	10398.92
522.404	10472.92
522.663	10456.92
522.922	10354.92
523.181	10385.92
523.44	10460.92
523.699	10484.92
523.958	10298.92
524.217	10330.92
524.475	10359.92
524.734	10359.92
524.993	10344.92
525.252	10401.92
525.511	10442.92
525.769	10395.92
526.028	10335.92
526.287	10383.92
526.546	10433.92
526.805	10390.92
527.063	10330.92
527.322	10265.92
527.581	10325.92
527.839	10378.92
528.098	10428.92
528.357	10342.92
528.616	10321.92
528.874	10300.92
529.133	10295.92
529.392	10357.92
529.65	10334.92
529.909	10325.92
530.168	10269.92
530.426	10297.92
530.685	10372.92
530.943	10363.92
531.202	10317.92
531.461	10293.92
531.719	10377.92
531.978	10338.92
532.236	10269.92
532.495	10335.92
532.753	10354.92
533.012	10301.92
533.271	10247.92
533.529	10233.92
533.788	10386.92
534.046	10303.92
534.305	10262.92
534.563	10467.92
534.822	10516.92
535.08	10466.92
535.338	10345.92
535.597	10337.92
535.855	10507.92
536.114	10371.92
536.372	10263.92
536.631	10381.92
536.889	10442.92
537.147	10392.92
537.406	10250.92
537.664	10391.92
537.923	10435.92
538.181	10471.92
538.439	10338.92
538.698	10441.92
538.956	10475.92
539.214	10440.92
539.473	10414.92
539.731	10506.92
539.989	10596.92
540.248	10446.92
540.506	10465.92
540.764	10549.92
541.022	10584.92
541.281	10702.92
541.539	10581.92
541.797	10561.92
542.055	10759.92
542.314	10866.92
542.572	10778.92
542.83	10648.92
543.088	10783.92
543.346	10762.92
543.604	10681.92
543.863	10796.92
544.121	10978.92
544.379	10951.92
544.637	10786.92
544.895	10908.92
545.153	11069.92
545.411	10962.92
545.67	10786.92
545.928	10902.92
546.186	11085.92
546.444	11147.92
546.702	11078.92
546.96	11182.92
547.218	11204.92
547.476	11162.92
547.734	11153.92
547.992	11252.92
548.25	11401.92
548.508	11319.92
548.766	11290.92
549.024	11346.92
549.282	11449.92
549.54	11507.92
549.798	11506.92
550.056	11617.92
550.314	11711.92
550.572	11638.92
550.83	11501.92
551.088	11589.92
551.346	11754.92
551.603	11801.92
551.861	11740.92
552.119	11817.92
552.377	11881.92
552.635	11848.92
552.893	11767.92
553.151	11865.92
553.409	12016.92
553.666	12023.92
553.924	11994.92
554.182	11994.92
554.44	12102.92
554.698	12167.92
554.955	12133.92
555.213	12139.92
555.471	12217.92
555.729	12217.92
555.986	12103.92
556.244	12284.92
556.502	12503.92
556.76	12389.92
557.017	12317.92
557.275	12359.92
557.533	12571.92
557.79	12562.92
558.048	12414.92
558.306	12474.92
558.563	12535.92
558.821	12521.92
559.079	12523.92
559.336	12622.92
559.594	12615.92
559.852	12470.92
560.109	12433.92
560.367	12614.92
560.624	12730.92
560.882	12704.92
561.14	12739.92
561.397	12819.92
561.655	12709.92
561.912	12750.92
562.17	12702.92
562.427	12734.92
562.685	12843.92
562.942	12780.92
563.2	12728.92
563.457	12839.92
563.715	12814.92
563.972	12829.92
564.23	12701.92
564.487	12670.92
564.745	12757.92
565.002	12815.92
565.26	12730.92
565.517	12657.92
565.774	12729.92
566.032	12805.92
566.289	12723.92
566.547	12796.92
566.804	12847.92
567.061	12787.92
567.319	12701.92
567.576	12823.92
567.833	12868.92
568.091	12890.92
568.348	12756.92
568.605	12828.92
568.863	12839.92
569.12	12772.92
569.377	12675.92
569.635	12626.92
569.892	12665.92
570.149	12577.92
570.406	12413.92
570.664	12468.92
570.921	12645.92
571.178	12558.92
571.435	12546.92
571.693	12557.92
571.95	12595.92
572.207	12444.92
572.464	12318.92
572.721	12404.92
572.979	12469.92
573.236	12412.92
573.493	12291.92
573.75	12217.92
574.007	12304.92
574.264	12211.92
574.521	12127.92
574.779	12129.92
575.036	12117.92
575.293	12074.92
575.55	11975.92
575.807	12003.92
576.064	12039.92
576.321	11944.92
576.578	11753.92
576.835	11767.92
577.092	11963.92
577.349	11730.92
577.606	11482.92
577.863	11570.92
578.12	11649.92
578.377	11587.92
578.634	11388.92
578.891	11365.92
579.148	11482.92
579.405	11370.92
579.662	11265.92
579.919	11249.92
580.176	11202.92
580.433	11138.92
580.69	11053.92
580.947	10976.92
581.204	11031.92
581.461	10911.92
581.717	10753.92
581.974	10916.92
582.231	10866.92
582.488	10648.92
582.745	10396.92
583.002	10435.92
583.259	10611.92
583.515	10505.92
583.772	10309.92
584.029	10372.92
584.286	10398.92
584.543	10142.92
584.799	10160.92
585.056	10183.92
585.313	10182.92
585.57	10087.92
585.826	9903.92
586.083	10018.92
586.34	10115.92
586.597	9825.92
586.853	9672.92
587.11	9655.92
587.367	9739.92
587.623	9782.92
587.88	9655.92
588.137	9421.92
588.393	9534.92
588.65	9467.92
588.907	9358.92
589.163	9389.92
589.42	9393.92
589.677	9325.92
589.933	9192.92
590.19	9280.92
590.446	9350.92
590.703	9288.92
590.96	8997.92
591.216	8941.92
591.473	9019.92
591.729	9029.92
591.986	8941.92
592.242	8995.92
592.499	9163.92
592.755	8964.92
593.012	8806.92
593.268	8823.92
593.525	8833.92
593.781	8844.92
594.038	8721.92
594.294	8758.92
594.551	8745.92
594.807	8763.92
595.064	8739.92
595.32	8657.92
595.576	8706.92
595.833	8677.92
596.089	8535.92
596.346	8697.92
596.602	8689.92
596.858	8705.92
597.115	8621.92
597.371	8596.92
597.628	8606.92
597.884	8552.92
598.14	8450.92
598.397	8516.92
598.653	8657.92
598.909	8556.92
599.166	8380.92
599.422	8425.92
599.678	8477.92
599.934	8504.92
600.191	8392.92
600.447	8356.92
600.703	8402.92
600.959	8356.92
601.216	8199.92
601.472	8263.92
601.728	8355.92
601.984	8263.92
602.241	8195.92
602.497	8244.92
602.753	8401.92
603.009	8312.92
603.265	8280.92
603.521	8403.92
603.778	8494.92
604.034	8296.92
604.29	8205.92
604.546	8302.92
604.802	8388.92
605.058	8269.92
605.314	8180.92
605.571	8240.92
605.827	8276.92
606.083	8191.92
606.339	8074.92
606.595	8181.92
606.851	8305.92
607.107	8366.92
607.363	8114.92
607.619	8082.92
607.875	8286.92
608.131	8266.92
608.387	8017.92
608.643	8082.92
608.899	8162.92
609.155	8173.92
609.411	8149.92
609.667	8168.92
609.923	8152.92
610.179	8111.92
610.435	7949.92
610.691	8026.92
610.947	8164.92
611.203	8072.92
611.459	7978.92
611.714	8014.92
611.97	8166.92
612.226	8102.92
612.482	7811.92
612.738	7934.92
612.994	8156.92
613.25	7944.92
613.505	7831.92
613.761	7828.92
614.017	7918.92
614.273	7980.92
614.529	7832.92
614.785	7795.92
615.04	7933.92
615.296	7921.92
615.552	7846.92
615.808	7868.92
616.063	7875.92
616.319	7839.92
616.575	7663.92
616.831	7713.92
617.086	7981.92
617.342	7912.92
617.598	7735.92
617.854	7748.92
618.109	7776.92
618.365	7602.92
618.621	7534.92
618.876	7627.92
619.132	7715.92
619.388	7632.92
619.643	7430.92
619.899	7586.92
620.155	7626.92
620.41	7592.92
620.666	7422.92
620.921	7448.92
621.177	7563.92
621.433	7517.92
621.688	7439.92
621.944	7381.92
622.199	7447.92
622.455	7506.92
622.71	7346.92
622.966	7354.92
623.221	7304.92
623.477	7299.92
623.732	7311.92
623.988	7207.92
624.243	7318.92
624.499	7276.92
624.754	7161.92
625.01	7178.92
625.265	7261.92
625.521	7322.92
625.776	7139.92
626.032	7132.92
626.287	7162.92
626.543	7078.92
626.798	6995.92
627.053	7030.92
627.309	7121.92
627.564	6999.92
627.82	6985.92
628.075	7025.92
628.33	6957.92
628.586	6802.92
628.841	6710.92
629.096	6857.92
629.352	6881.92
629.607	6747.92
629.862	6666.92
630.118	6810.92
630.373	6796.92
630.628	6827.92
630.884	6626.92
631.139	6683.92
631.394	6786.92
631.649	6741.92
631.905	6601.92
632.16	6687.92
632.415	6782.92
632.67	6603.92
632.926	6486.92
633.181	6442.92
633.436	6549.92
633.691	6534.92
633.946	6399.92
634.202	6416.92
634.457	6532.92
634.712	6390.92
634.967	6326.92
635.222	6295.92
635.477	6365.92
635.733	6359.92
635.988	6250.92
636.243	6237.92
636.498	6371.92
636.753	6311.92
637.008	6140.92
637.263	6173.92
637.518	6270.92
637.773	6225.92
638.028	6139.92
638.283	6135.92
638.539	6207.92
638.794	6171.92
639.049	6033.92
639.304	5988.92
639.559	6024.92
639.814	5988.92
640.069	5921.92
640.324	5891.92
640.579	5975.92
640.834	5929.92
641.089	5790.92
641.344	5848.92
641.598	6015.92
641.853	5882.92
642.108	5705.92
642.363	5657.92
642.618	5814.92
642.873	5791.92
643.128	5670.92
643.383	5627.92
643.638	5676.92
643.893	5761.92
644.148	5742.92
644.402	5661.92
644.657	5716.92
644.912	5609.92
645.167	5558.92
645.422	5615.92
645.677	5575.92
645.931	5639.92
646.186	5610.92
646.441	5504.92
646.696	5497.92
646.951	5533.92
647.205	5475.92
647.46	5398.92
647.715	5423.92
647.97	5585.92
648.224	5667.92
648.479	5524.92
648.734	5564.92
648.989	5542.92
649.243	5400.92
649.498	5293.92
649.753	5358.92
650.007	5435.92
650.262	5315.92
650.517	5327.92
650.771	5358.92
651.026	5283.92
651.281	5186.92
651.535	5336.92
651.79	5329.92
652.045	5302.92
652.299	5178.92
652.554	5132.92
652.809	5209.92
653.063	5364.92
653.318	5260.92
653.572	5154.92
653.827	5289.92
654.081	5229.92
654.336	5114.92
654.591	5096.92
654.845	5145.92
655.1	5118.92
655.354	5117.92
655.609	5172.92
655.863	5234.92
656.118	5196.92
656.372	5025.92
656.627	5064.92
656.881	5161.92
657.136	5081.92
657.39	4951.92
657.645	5095.92
657.899	5257.92
658.153	5102.92
658.408	5009.92
658.662	5098.92
658.917	5146.92
659.171	5019.92
659.426	4931.92
659.68	4965.92
659.934	5105.92
660.189	5100.92
660.443	4948.92
660.697	5074.92
660.952	5131.92
661.206	5009.92
661.46	4904.92
661.715	4977.92
661.969	5046.92
662.223	5023.92
662.478	4910.92
662.732	4975.92
662.986	5057.92
663.241	5065.92
663.495	4952.92
663.749	4986.92
664.003	5134.92
664.258	4984.92
664.512	4905.92
664.766	5017.92
665.02	5145.92
665.275	5133.92
665.529	4921.92
665.783	4922.92
666.037	4988.92
666.291	5043.92
666.546	4973.92
666.8	5015.92
667.054	4941.92
667.308	5045.92
667.562	4851.92
667.816	4917.92
668.071	5051.92
668.325	4931.92
668.579	4930.92
668.833	5037.92
669.087	5155.92
669.341	5018.92
669.595	4913.92
669.849	4954.92
670.103	5073.92
670.357	5079.92
670.612	5033.92
670.866	4995.92
671.12	5107.92
671.374	5085.92
671.628	5006.92
671.882	4994.92
672.136	5106.92
672.39	5095.92
672.644	4962.92
672.898	5134.92
673.152	5243.92
673.406	5167.92
673.66	5080.92
673.914	5121.92
674.168	5205.92
674.422	5124.92
674.675	4997.92
674.929	5078.92
675.183	5223.92
675.437	5217.92
675.691	5134.92
675.945	5191.92
676.199	5321.92
676.453	5204.92
676.707	5082.92
676.961	5079.92
677.214	5181.92
677.468	5241.92
677.722	5270.92
677.976	5227.92
678.23	5307.92
678.484	5340.92
678.737	5240.92
678.991	5231.92
679.245	5297.92
679.499	5290.92
679.753	5192.92
680.006	5281.92
680.26	5424.92
680.514	5435.92
680.768	5221.92
681.021	5323.92
681.275	5394.92
681.529	5372.92
681.783	5277.92
682.036	5386.92
682.29	5368.92
682.544	5433.92
682.797	5378.92
683.051	5364.92
683.305	5451.92
683.559	5456.92
683.812	5473.92
684.066	5479.92
684.32	5541.92
684.573	5526.92
684.827	5534.92
685.08	5572.92
685.334	5651.92
685.588	5581.92
685.841	5465.92
686.095	5618.92
686.348	5625.92
686.602	5603.92
686.856	5566.92
687.109	5551.92
687.363	5565.92
687.616	5531.92
687.87	5460.92
688.123	5508.92
688.377	5586.92
688.63	5657.92
688.884	5585.92
689.137	5725.92
689.391	5753.92
689.644	5566.92
689.898	5468.92
690.151	5534.92
690.405	5703.92
690.658	5645.92
690.912	5595.92
691.165	5552.92
691.419	5669.92
691.672	5724.92
691.926	5637.92
692.179	5622.92
692.432	5724.92
692.686	5657.92
692.939	5553.92
693.193	5603.92
693.446	5740.92
693.699	5732.92
693.953	5719.92
694.206	5717.92
694.459	5817.92
694.713	5825.92
694.966	5650.92
695.219	5698.92
695.473	5797.92
695.726	5722.92
695.979	5684.92
696.233	5707.92
696.486	5728.92
696.739	5725.92
696.992	5659.92
697.246	5745.92
697.499	5781.92
697.752	5613.92
698.006	5595.92
698.259	5732.92
698.512	5715.92
698.765	5705.92
699.018	5622.92
699.272	5701.92
699.525	5693.92
699.778	5650.92
700.031	5611.92
700.284	5638.92
700.538	5758.92
700.791	5713.92
701.044	5657.92
701.297	5725.92
701.55	5713.92
701.803	5626.92
702.056	5536.92
702.31	5600.92
702.563	5718.92
702.816	5599.92
703.069	5507.92
703.322	5633.92
703.575	5722.92
703.828	5753.92
704.081	5641.92
704.334	5624.92
704.587	5665.92
704.84	5582.92
705.093	5606.92
705.346	5739.92
705.599	5704.92
705.853	5656.92
706.106	5686.92
706.359	5923.92
706.612	5697.92
706.865	5715.92
707.118	5507.92
707.37	5576.92
707.623	5698.92
707.876	5613.92
708.129	5599.92
708.382	5697.92
708.635	5769.92
708.888	5628.92
709.141	5450.92
709.394	5556.92
709.647	5675.92
709.9	5537.92
710.153	5405.92
710.406	5570.92
710.658	5623.92
710.911	5573.92
711.164	5417.92
711.417	5427.92
711.67	5497.92
711.923	5540.92
712.176	5366.92
712.428	5393.92
712.681	5453.92
712.934	5481.92
713.187	5387.92
713.44	5346.92
713.692	5516.92
713.945	5440.92
714.198	5346.92
714.451	5302.92
714.704	5415.92
714.956	5447.92
715.209	5453.92
715.462	5373.92
715.715	5398.92
715.967	5370.92
716.22	5207.92
716.473	5245.92
716.725	5454.92
716.978	5391.92
717.231	5357.92
717.484	5375.92
717.736	5314.92
717.989	5216.92
718.242	5107.92
718.494	5178.92
718.747	5337.92
718.999	5290.92
719.252	5284.92
719.505	5281.92
719.757	5260.92
720.01	5186.92
720.263	5097.92
720.515	5140.92
720.768	5211.92
721.02	5184.92
721.273	5052.92
721.525	4996.92
721.778	5090.92
722.031	5169.92
722.283	4994.92
722.536	5003.92
722.788	5052.92
723.041	5034.92
723.293	4977.92
723.546	4954.92
723.798	5037.92
724.051	5084.92
724.303	4994.92
724.556	5050.92
724.808	5139.92
725.061	4999.92
725.313	4928.92
725.566	4916.92
725.818	4941.92
726.071	4945.92
726.323	4792.92
726.575	4842.92
726.828	4953.92
727.08	4968.92
727.333	4812.92
727.585	4844.92
727.837	4902.92
728.09	4880.92
728.342	4697.92
728.595	4766.92
728.847	4959.92
729.099	4733.92
729.352	4727.92
729.604	4706.92
729.856	4794.92
730.109	4788.92
730.361	4640.92
730.613	4773.92
730.866	4909.92
731.118	4670.92
731.37	4603.92
731.622	4639.92
731.875	4674.92
732.127	4738.92
732.379	4711.92
732.631	4737.92
732.884	4713.92
733.136	4629.92
733.388	4530.92
733.64	4579.92
733.893	4706.92
734.145	4607.92
734.397	4454.92
734.649	4476.92
734.901	4556.92
735.154	4462.92
735.406	4371.92
735.658	4445.92
735.91	4563.92
736.162	4501.92
736.414	4349.92
736.667	4466.92
736.919	4460.92
737.171	4339.92
737.423	4285.92
737.675	4358.92
737.927	4447.92
738.179	4363.92
738.431	4287.92
738.684	4214.92
738.936	4363.92
739.188	4424.92
739.44	4217.92
739.692	4253.92
739.944	4207.92
740.196	4176.92
740.448	4158.92
740.7	4171.92
740.952	4243.92
741.204	4259.92
741.456	4128.92
741.708	4157.92
741.96	4172.92
742.212	4277.92
742.464	4220.92
742.716	4094.92
742.968	4168.92
743.22	4091.92
743.472	4013.92
743.724	4069.92
743.976	4238.92
744.228	4233.92
744.48	4033.92
744.732	4018.92
744.983	4157.92
745.235	4155.92
745.487	4121.92
745.739	4136.92
745.991	4097.92
746.243	4147.92
746.495	4004.92
746.747	3976.92
746.999	4088.92
747.25	4083.92
747.502	4020.92
747.754	4119.92
748.006	4065.92
748.258	4147.92
748.51	4122.92
748.761	4002.92
749.013	4052.92
749.265	4118.92
749.517	4100.92
749.768	4120.92
750.02	4112.92
750.272	4066.92
750.524	3899.92
750.776	3877.92
751.027	4077.92
751.279	4065.92
751.531	3850.92
751.782	3921.92
752.034	4016.92
752.286	3886.92
752.538	3771.92
752.789	3876.92
753.041	3978.92
753.293	3954.92
753.544	3850.92
753.796	3886.92
754.048	3984.92
754.299	3939.92
754.551	3870.92
754.803	3803.92
755.054	3856.92
755.306	3906.92
755.558	3784.92
755.809	3786.92
756.061	3917.92
756.312	3754.92
756.564	3773.92
756.816	3836.92
757.067	3829.92
757.319	3737.92
757.57	3694.92
757.822	3784.92
758.073	3878.92
758.325	3838.92
758.577	3671.92
758.828	3693.92
759.08	3871.92
759.331	3832.92
759.583	3632.92
759.834	3736.92
760.086	3714.92
760.337	3676.92
760.589	3598.92
760.84	3623.92
761.092	3696.92
761.343	3669.92
761.595	3521.92
761.846	3665.92
762.097	3680.92
762.349	3656.92
762.6	3498.92
762.852	3630.92
763.103	3721.92
763.355	3560.92
763.606	3514.92
763.857	3650.92
764.109	3689.92
764.36	3556.92
764.612	3479.92
764.863	3605.92
765.114	3639.92
765.366	3487.92
765.617	3334.92
765.868	3409.92
766.12	3571.92
766.371	3579.92
766.622	3369.92
766.874	3466.92
767.125	3588.92
767.376	3449.92
767.628	3350.92
767.879	3423.92
768.13	3514.92
768.381	3491.92
768.633	3443.92
768.884	3424.92
769.135	3496.92
769.386	3431.92
769.638	3367.92
769.889	3423.92
770.14	3470.92
770.391	3334.92
770.643	3216.92
770.894	3241.92
771.145	3419.92
771.396	3337.92
771.647	3217.92
771.899	3370.92
772.15	3419.92
772.401	3323.92
772.652	3173.92
772.903	3226.92
773.154	3579.92
773.406	3805.92
773.657	3225.92
773.908	3217.92
774.159	3306.92
774.41	3293.92
774.661	3141.92
774.912	3205.92
775.163	3388.92
775.414	3374.92
775.666	3129.92
775.917	3107.92
776.168	3182.92
776.419	3206.92
776.67	3099.92
776.921	3099.92
777.172	3162.92
777.423	3172.92
777.674	3197.92
777.925	3212.92
778.176	3104.92
778.427	3093.92
778.678	3034.92
778.929	3024.92
779.18	3115.92
779.431	3029.92
779.682	3058.92
779.933	3061.92
780.184	3093.92
780.435	3062.92
780.686	3029.92
780.937	3062.92
781.188	3089.92
781.439	3202.92
781.69	3105.92
781.941	3026.92
782.191	3029.92
782.442	3020.92
782.693	2945.92
782.944	2951.92
783.195	3026.92
783.446	3027.92
783.697	3041.92
783.948	2915.92
784.199	2965.92
784.449	2910.92
784.7	2938.92
784.951	2970.92
785.202	3077.92
785.453	3037.92
785.704	2866.92
785.954	2829.92
786.205	2901.92
786.456	2869.92
786.707	2803.92
786.958	2826.92
787.208	2910.92
787.459	2863.92
787.71	2849.92
787.961	2798.92
788.211	2860.92
788.462	2868.92
788.713	2803.92
788.964	2790.92
789.214	2875.92
789.465	2889.92
789.716	2806.92
789.967	2812.92
790.217	2843.92
790.468	2796.92
790.719	2693.92
790.969	2722.92
791.22	2805.92
791.471	2854.92
791.721	2876.92
791.972	2753.92
792.223	2793.92
792.473	2723.92
792.724	2704.92
792.975	2673.92
793.225	2717.92
793.476	2690.92
793.726	2634.92
793.977	2774.92
794.228	2884.92
794.478	2754.92
794.729	2627.92
794.979	2730.92
795.23	2772.92
795.481	2692.92
795.731	2565.92
795.982	2640.92
796.232	2632.92
796.483	2614.92
796.733	2564.92
796.984	2619.92
797.234	2700.92
797.485	2684.92
797.735	2535.92
797.986	2575.92
798.236	2654.92
798.487	2557.92
798.737	2559.92
798.988	2699.92
799.238	2707.92
799.489	2588.92
799.739	2518.92
799.99	2571.92
800.24	2633.92
800.491	2672.92
800.741	2541.92
800.991	2500.92
801.242	2546.92
801.492	2569.92
801.743	2502.92
801.993	2618.92
802.244	2729.92
802.494	2505.92
802.744	2454.92
802.995	2497.92
803.245	2512.92
803.495	2483.92
803.746	2430.92
803.996	2510.92
804.246	2490.92
804.497	2482.92
804.747	2406.92
804.997	2518.92
805.248	2471.92
805.498	2397.92
805.748	2435.92
805.999	2315.92
806.249	2384.92
806.499	2370.92
806.75	2287.92
807	2337.92
807.25	2439.92
807.5	2364.92
807.751	2395.92
808.001	2484.92
808.251	2451.92
808.501	2527.92
808.752	2486.92
809.002	2404.92
809.252	2420.92
809.502	2354.92
809.752	2298.92
810.003	2262.92
810.253	2338.92
810.503	2402.92
810.753	2419.92
811.003	2417.92
811.254	2456.92
811.504	2369.92
811.754	2323.92
812.004	2310.92
812.254	2557.92
812.504	2368.92
812.754	2263.92
813.005	2309.92
813.255	2403.92
813.505	2358.92
813.755	2262.92
814.005	2329.92
814.255	2354.92
814.505	2315.92
814.755	2187.92
815.005	2209.92
815.255	2318.92
815.505	2262.92
815.756	2291.92
816.006	2264.92
816.256	2196.92
816.506	2172.92
816.756	2118.92
817.006	2182.92
817.256	2252.92
817.506	2234.92
817.756	2175.92
818.006	2217.92
818.256	2267.92
818.506	2240.92
818.756	2132.92
819.006	2199.92
819.256	2264.92
819.506	2166.92
819.756	2093.92
820.006	2189.92
820.255	2242.92
820.505	2199.92
820.755	2077.92
821.005	2126.92
821.255	2257.92
821.505	2182.92
821.755	2091.92
822.005	2200.92
822.255	2264.92
822.505	2159.92
822.755	2183.92
823.004	2052.92
823.254	2055.92
823.504	2143.92
823.754	2157.92
824.004	2092.92
824.254	2166.92
824.504	2141.92
824.753	2184.92
825.003	2178.92
825.253	2213.92
825.503	2117.92
825.753	2055.92
826.002	2150.92
826.252	2338.92
826.502	2119.92
826.752	2014.92
827.002	2053.92
827.251	2166.92
827.501	2080.92
827.751	1975.92
828.001	1998.92
828.25	2117.92
828.5	1985.92
828.75	1946.92
829	2040.92
829.249	2171.92
829.499	1992.92
829.749	1989.92
829.998	2087.92
830.248	2046.92
830.498	1926.92
830.748	1991.92
830.997	2049.92
831.247	2091.92
831.497	2084.92
831.746	2010.92
831.996	2102.92
832.246	2207.92
832.495	2155.92
832.745	1930.92
832.994	1959.92
833.244	2098.92
833.494	2011.92
833.743	1888.92
833.993	1918.92
834.243	1974.92
834.492	1979.92
834.742	1981.92
834.991	1945.92
835.241	2110.92
835.49	1956.92
835.74	1838.92
835.99	1912.92
836.239	2006.92
836.489	2017.92
836.738	1926.92
836.988	1804.92
837.237	1933.92
837.487	2071.92
837.736	1919.92
837.986	1870.92
838.235	1919.92
838.485	1909.92
838.734	1858.92
838.984	1941.92
839.233	1913.92
839.483	1814.92
839.732	1797.92
839.982	1882.92
840.231	1929.92
840.481	1903.92
840.73	1791.92
840.979	1844.92
841.229	1853.92
841.478	1864.92
841.728	1728.92
841.977	1705.92
842.227	1798.92
842.476	1745.92
842.725	1722.92
842.975	1785.92
843.224	1840.92
843.474	1910.92
843.723	1799.92
843.972	1788.92
844.222	1817.92
844.471	1895.92
844.72	1754.92
844.97	1757.92
845.219	1863.92
845.468	1847.92
845.718	1750.92
845.967	1758.92
846.216	1819.92
846.466	1875.92
846.715	1747.92
846.964	1717.92
847.214	1726.92
847.463	1690.92
847.712	1740.92
847.961	1694.92
848.211	1749.92
848.46	1763.92
848.709	1695.92
848.958	1645.92
849.208	1722.92
849.457	1693.92
849.706	1694.92
849.955	1682.92
850.205	1655.92
850.454	1785.92
850.703	1790.92
850.952	1738.92
851.201	1783.92
851.451	1709.92
851.7	1700.92
851.949	1582.92
852.198	1695.92
852.447	1666.92
852.696	1603.92
852.946	1629.92
853.195	1702.92
853.444	1714.92
853.693	1539.92
853.942	1558.92
854.191	1664.92
854.44	1682.92
854.689	1598.92
854.939	1571.92
855.188	1574.92
855.437	1593.92
855.686	1526.92
855.935	1586.92
856.184	1665.92
856.433	1678.92
856.682	1602.92
856.931	1570.92
857.18	1626.92
857.429	1563.92
857.678	1506.92
857.927	1550.92
858.176	1566.92
858.425	1510.92
858.674	1434.92
858.924	1531.92
859.173	1551.92
859.422	1549.92
859.671	1410.92
859.92	1463.92
860.169	1524.92
860.417	1553.92
860.666	1482.92
860.915	1433.92
861.164	1480.92
861.413	1425.92
861.662	1368.92
861.911	1419.92
862.16	1552.92
862.409	1541.92
862.658	1349.92
862.907	1380.92
863.156	1502.92
863.405	1490.92
863.654	1365.92
863.903	1322.92
864.151	1438.92
864.4	1458.92
864.649	1397.92
864.898	1443.92
865.147	1479.92
865.396	1515.92
865.645	1377.92
865.894	1408.92
866.142	1545.92
866.391	1457.92
866.64	1320.92
866.889	1417.92
867.138	1577.92
867.387	1463.92
867.635	1358.92
867.884	1421.92
868.133	1526.92
868.382	1412.92
868.631	1274.92
868.879	1284.92
869.128	1386.92
869.377	1377.92
869.626	1299.92
869.874	1322.92
870.123	1439.92
870.372	1355.92
870.621	1227.92
870.869	1290.92
871.118	1393.92
871.367	1369.92
871.616	1259.92
871.864	1365.92
872.113	1391.92
872.362	1360.92
872.61	1298.92
872.859	1327.92
873.108	1379.92
873.357	1297.92
873.605	1196.92
873.854	1207.92
874.103	1227.92
874.351	1257.92
874.6	1237.92
874.848	1274.92
875.097	1297.92
875.346	1308.92
875.594	1201.92
875.843	1301.92
876.092	1422.92
876.34	1315.92
876.589	1217.92
876.837	1128.92
877.086	1220.92
877.335	1291.92
877.583	1222.92
877.832	1230.92
878.08	1370.92
878.329	1262.92
878.578	1169.92
878.826	1197.92
879.075	1298.92
879.323	1267.92
879.572	1182.92
879.82	1320.92
880.069	1269.92
880.317	1264.92
880.566	1141.92
880.814	1212.92
881.063	1311.92
881.311	1228.92
881.56	1259.92
881.808	1160.92
882.057	1217.92
882.305	1198.92
882.554	1208.92
882.802	1101.92
883.051	1162.92
883.299	1180.92
883.548	1152.92
883.796	1225.92
884.045	1201.92
884.293	1158.92
884.541	1047.92
884.79	1017.92
885.038	1122.92
885.287	1119.92
885.535	1138.92
885.783	1165.92
886.032	1097.92
886.28	1069.92
886.529	1013.92
886.777	1086.92
887.025	1239.92
887.274	1095.92
887.522	1027.92
887.77	1045.92
888.019	1068.92
888.267	1053.92
888.516	976.92
888.764	1013.92
889.012	1104.92
889.261	1087.92
889.509	989.92
889.757	1018.92
890.005	1043.92
890.254	1005.92
890.502	1018.92
890.75	1243.92
890.999	1199.92
891.247	1116.92
891.495	1050.92
891.743	1034.92
891.992	1186.92
892.24	1070.92
892.488	966.92
892.737	969.92
892.985	1048.92
893.233	1020.92
893.481	965.92
893.729	951.92
893.978	1109.92
894.226	1125.92
894.474	975.92
894.722	957.92
894.97	988.92
895.219	972.92
895.467	989.92
895.715	1019.92
895.963	967.92
896.211	913.92
896.46	857.92
896.708	989.92
896.956	1054.92
897.204	1122.92
897.452	1025.92
897.7	948.92
897.948	1022.92
898.197	955.92
898.445	899.92
898.693	931.92
898.941	998.92
899.189	980.92
899.437	930.92
899.685	1009.92
899.933	957.92
900.181	971.92
900.43	884.92
900.678	878.92
900.926	929.92
901.174	910.92
901.422	857.92
901.67	896.92
901.918	982.92
902.166	920.92
902.414	784.92
902.662	833.92
902.91	924.92
903.158	890.92
903.406	829.92
903.654	853.92
903.902	887.92
904.15	858.92
904.398	761.92
904.646	861.92
904.894	939.92
905.142	939.92
905.39	879.92
905.638	825.92
905.886	854.92
906.134	834.92
906.382	830.92
906.63	805.92
906.878	899.92
907.126	898.92
907.374	819.92
907.622	809.92
907.869	913.92
908.117	887.92
908.365	817.92
908.613	799.92
908.861	823.92
909.109	789.92
909.357	756.92
909.605	815.92
909.853	857.92
910.1	769.92
910.348	638.92
910.596	694.92
910.844	869.92
911.092	897.92
911.34	767.92
911.588	793.92
911.835	862.92
912.083	809.92
912.331	776.92
912.579	796.92
912.827	956.92
913.075	841.92
913.322	695.92
913.57	711.92
913.818	867.92
914.066	813.92
914.313	714.92
914.561	792.92
914.809	796.92
915.057	756.92
915.305	743.92
915.552	721.92
915.8	824.92
916.048	762.92
916.296	654.92
916.543	750.92
916.791	841.92
917.039	768.92
917.286	647.92
917.534	675.92
917.782	818.92
918.03	731.92
918.277	599.92
918.525	622.92
918.773	740.92
919.02	738.92
919.268	667.92
919.516	683.92
919.763	676.92
920.011	676.92
920.259	579.92
920.506	661.92
920.754	775.92
921.002	775.92
921.249	740.92
921.497	678.92
921.745	710.92
921.992	730.92
922.24	585.92
922.487	724.92
922.735	878.92
922.983	777.92
923.23	666.92
923.478	602.92
923.725	690.92
923.973	716.92
924.221	670.92
924.468	713.92
924.716	705.92
924.963	669.92
925.211	623.92
925.458	677.92
925.706	773.92
925.953	813.92
926.201	626.92
926.448	590.92
926.696	682.92
926.944	639.92
927.191	576.92
927.439	596.92
927.686	620.92
927.934	638.92
928.181	540.92
928.429	534.92
928.676	587.92
928.923	530.92
929.171	507.92
929.418	665.92
929.666	713.92
929.913	692.92
930.161	499.92
930.408	518.92
930.656	597.92
930.903	629.92
931.151	511.92
931.398	548.92
931.645	652.92
931.893	559.92
932.14	523.92
932.388	545.92
932.635	675.92
932.882	722.92
933.13	600.92
933.377	533.92
933.625	637.92
933.872	573.92
934.119	460.92
934.367	503.92
934.614	502.92
934.861	496.92
935.109	494.92
935.356	544.92
935.603	577.92
935.851	523.92
936.098	470.92
936.345	561.92
936.593	588.92
936.84	536.92
937.087	420.92
937.335	482.92
937.582	538.92
937.829	543.92
938.077	515.92
938.324	516.92
938.571	579.92
938.818	507.92
939.066	456.92
939.313	430.92
939.56	554.92
939.807	534.92
940.055	409.92
940.302	475.92
940.549	615.92
940.796	556.92
941.044	486.92
941.291	524.92
941.538	662.92
941.785	541.92
942.033	473.92
942.28	539.92
942.527	563.92
942.774	549.92
943.021	387.92
943.269	427.92
943.516	545.92
943.763	531.92
944.01	455.92
944.257	529.92
944.504	607.92
944.752	559.92
944.999	504.92
945.246	434.92
945.493	490.92
945.74	498.92
945.987	429.92
946.234	482.92
946.482	574.92
946.729	456.92
946.976	421.92
947.223	434.92
947.47	580.92
947.717	553.92
947.964	555.92
948.211	522.92
948.458	565.92
948.705	486.92
948.952	381.92
949.2	456.92
949.447	573.92
949.694	566.92
949.941	435.92
950.188	425.92
950.435	452.92
950.682	465.92
950.929	333.92
951.176	380.92
951.423	550.92
951.67	521.92
951.917	471.92
952.164	457.92
952.411	511.92
952.658	557.92
952.905	404.92
953.152	351.92
953.399	488.92
953.646	474.92
953.893	357.92
954.14	393.92
954.387	442.92
954.634	431.92
954.881	376.92
955.128	424.92
955.375	398.92
955.622	409.92
955.869	414.92
956.115	393.92
956.362	470.92
956.609	442.92
956.856	365.92
957.103	354.92
957.35	456.92
957.597	479.92
957.844	414.92
958.091	394.92
958.338	485.92
958.585	438.92
958.831	257.92
959.078	321.92
959.325	477.92
959.572	381.92
959.819	285.92
960.066	259.92
960.313	389.92
960.559	385.92
960.806	256.92
961.053	287.92
961.3	457.92
961.547	465.92
961.794	277.92
962.04	448.92
962.287	461.92
962.534	318.92
962.781	301.92
963.028	369.92
963.274	474.92
963.521	373.92
963.768	298.92
964.015	345.92
964.262	493.92
964.508	364.92
964.755	269.92
965.002	296.92
965.249	334.92
965.495	283.92
965.742	241.92
965.989	270.92
966.236	397.92
966.482	327.92
966.729	249.92
966.976	231.92
967.222	290.92
967.469	299.92
967.716	242.92
967.963	258.92
968.209	344.92
968.456	304.92
968.703	194.92
968.949	294.92
969.196	459.92
969.443	434.92
969.689	224.92
969.936	209.92
970.183	306.92
970.429	256.92
970.676	213.92
970.923	285.92
971.169	350.92
971.416	275.92
971.663	237.92
971.909	264.92
972.156	329.92
972.402	339.92
972.649	267.92
972.896	297.92
973.142	312.92
973.389	326.92
973.635	220.92
973.882	325.92
974.129	397.92
974.375	281.92
974.622	188.92
974.868	208.92
975.115	293.92
975.361	247.92
975.608	227.92
975.855	342.92
976.101	362.92
976.348	283.92
976.594	203.92
976.841	259.92
977.087	257.92
977.334	294.92
977.58	165.92
977.827	167.92
978.073	322.92
978.32	283.92
978.566	164.92
978.813	254.92
979.059	273.92
979.306	239.92
979.552	137.92
979.799	222.92
980.045	233.92
980.292	226.92
980.538	144.92
980.785	145.92
981.031	199.92
981.278	170.92
981.524	110.92
981.771	262.92
982.017	387.92
982.263	298.92
982.51	171.92
982.756	242.92
983.003	299.92
983.249	236.92
983.495	153.92
983.742	129.92
983.988	218.92
984.235	247.92
984.481	129.92
984.727	126.92
984.974	251.92
985.22	244.92
985.467	175.92
985.713	187.92
985.959	304.92
986.206	281.92
986.452	182.92
986.698	227.92
986.945	235.92
987.191	281.92
987.437	262.92
987.684	233.92
987.93	399.92
988.176	289.92
988.423	107.92
988.669	172.92
988.915	359.92
989.162	197.92
989.408	108.92
989.654	161.92
989.901	187.92
990.147	205.92
990.393	221.92
990.639	275.92
990.886	283.92
991.132	309.92
991.378	254.92
991.625	390.92
991.871	356.92
992.117	271.92
992.363	188.92
992.61	209.92
992.856	326.92
993.102	206.92
993.348	148.92
993.594	170.92
993.841	204.92
994.087	335.92
994.333	189.92
994.579	177.92
994.826	221.92
995.072	245.92
995.318	40.92
995.564	97.92
995.81	225.92
996.057	165.92
996.303	73.92
996.549	90.92
996.795	183.92
997.041	182.92
997.287	153.92
997.534	141.92
997.78	200.92
998.026	207.92
998.272	97.92
998.518	101.92
998.764	244.92
999.01	255.92
999.256	152.92
999.503	116.92
999.749	140.92
999.995	100.92
1000.241	68.92
1000.487	150.92
1000.733	206.92
1000.979	169.92
1001.225	134.92
1001.471	204.92
1001.718	248.92
1001.964	261.92
1002.21	94.92
1002.456	137.92
1002.702	288.92
1002.948	197.92
1003.194	108.92
1003.44	87.92
1003.686	179.92
1003.932	118.92
1004.178	85.92
1004.424	141.92
1004.67	268.92
1004.916	259.92
1005.162	153.92
1005.408	90.92
1005.654	234.92
1005.9	80.92
1006.146	27.92
1006.392	85.92
1006.638	170.92
1006.884	138.92
1007.13	59.92
1007.376	41.92
1007.622	231.92
1007.868	270.92
1008.114	117.92
1008.36	176.92
1008.606	204.92
1008.852	221.92
1009.098	152.92
1009.344	180.92
1009.59	158.92
1009.836	31.92
1010.082	-39.08
1010.328	84.92
1010.574	163.92
1010.82	61.92
1011.065	-11.08
1011.311	11.92
1011.557	127.92
1011.803	82.92
1012.049	18.92
1012.295	86.92
1012.541	122.92
1012.787	126.92
1013.033	-9.08
1013.278	-24.08
1013.524	120.92
1013.77	188.92
1014.016	87.92
1014.262	92.92
1014.508	200.92
1014.754	31.92
1015	31.92
1015.245	194.92
1015.491	202.92
1015.737	157.92
1015.983	8.92
1016.229	-14.08
1016.475	109.92
1016.72	244.92
1016.966	259.92
1017.212	133.92
1017.458	207.92
1017.704	119.92
1017.949	-17.08
1018.195	152.92
1018.441	248.92
1018.687	190.92
1018.933	61.92
1019.178	31.92
1019.424	215.92
1019.67	228.92
1019.916	1.92
1020.161	47.92
1020.407	135.92
1020.653	70.92
1020.899	-19.08
1021.144	59.92
1021.39	147.92
1021.636	30.92
1021.882	-50.08
1022.127	67.92
1022.373	217.92
1022.619	157.92
1022.865	39.92
1023.11	49.92
1023.356	167.92
1023.602	86.92
1023.847	35.92
1024.093	82.92
1024.339	50.92
1024.584	45.92
1024.83	27.92
1025.076	12.92
1025.321	137.92
1025.567	116.92
1025.813	3.92
1026.058	86.92
1026.304	138.92
1026.55	52.92
1026.795	38.92
1027.041	43.92
1027.287	89.92
1027.532	121.92
1027.778	77.92
1028.024	46.92
1028.269	86.92
1028.515	17.92
1028.76	-24.08
1029.006	30.92
1029.252	138.92
1029.497	70.92
1029.743	53.92
1029.989	-1.08
1030.234	117.92
1030.48	180.92
1030.725	-18.08
1030.971	17.92
1031.216	146.92
1031.462	69.92
1031.708	-71.08
1031.953	-24.08
1032.199	76.92
1032.444	80.92
1032.69	25.92
1032.935	27.92
1033.181	148.92
1033.426	36.92
1033.672	-110.08
1033.918	-61.08
1034.163	45.92
1034.409	34.92
1034.654	7.92
1034.9	100.92
1035.145	123.92
1035.391	58.92
1035.636	-64.08
1035.882	24.92
1036.127	10.92
1036.373	-10.08
1036.618	-112.08
1036.864	-8.08
1037.109	130.92
1037.355	23.92
1037.6	-53.08
1037.845	10.92
1038.091	177.92
1038.336	147.92
1038.582	151.92
1038.827	213.92
1039.073	78.92
1039.318	-11.08
1039.564	-110.08
1039.809	-34.08
1040.055	149.92
1040.3	140.92
1040.545	-31.08
1040.791	-30.08
1041.036	18.92
1041.282	51.92
1041.527	134.92
1041.772	-46.08
1042.018	6.92
1042.263	64.92
1042.509	-86.08
1042.754	-51.08
1042.999	68.92
1043.245	33.92
1043.49	-155.08
1043.736	-68.08
1043.981	29.92
1044.226	33.92
1044.472	22.92
1044.717	29.92
1044.962	124.92
1045.208	40.92
1045.453	-178.08
1045.698	-87.08
1045.944	110.92
1046.189	73.92
1046.434	-35.08
1046.68	-13.08
1046.925	161.92
1047.17	1.92
1047.416	-166.08
1047.661	-61.08
1047.906	98.92
1048.152	72.92
1048.397	-19.08
1048.642	-38.08
1048.887	144.92
1049.133	142.92
1049.378	-32.08
1049.623	-28.08
1049.869	84.92
1050.114	7.92
1050.359	-69.08
1050.604	-12.08
1050.85	162.92
1051.095	17.92
1051.34	-86.08
1051.585	-2.08
1051.831	178.92
1052.076	37.92
1052.321	-170.08
1052.566	-62.08
1052.812	120.92
1053.057	29.92
1053.302	-52.08
1053.547	33.92
1053.792	90.92
1054.038	81.92
1054.283	-116.08
1054.528	-37.08
1054.773	21.92
1055.018	28.92
1055.264	-69.08
1055.509	-97.08
1055.754	28.92
1055.999	-43.08
1056.244	-136.08
1056.49	-37.08
1056.735	65.92
1056.98	-2.08
1057.225	-121.08
1057.47	70.92
1057.715	3.92
1057.96	-75.08
1058.206	-109.08
1058.451	-2.08
1058.696	111.92
1058.941	45.92
1059.186	-124.08
1059.431	-91.08
1059.676	107.92
1059.922	37.92
1060.167	146.92
1060.412	311.92
1060.657	79.92
1060.902	-0.08
1061.147	-174.08
1061.392	-88.08
1061.637	70.92
1061.882	-15.08
1062.127	-160.08
1062.373	-142.08
1062.618	119.92
1062.863	161.92
1063.108	-52.08
1063.353	-112.08
1063.598	-5.08
1063.843	-38.08
1064.088	-120.08
1064.333	-108.08
1064.578	59.92
1064.823	75.92
1065.068	-180.08
1065.313	-93.08
1065.558	55.92
1065.803	45.92
1066.048	-140.08
1066.293	-120.08
1066.538	73.92
1066.783	3.92
1067.028	-160.08
1067.273	-151.08
1067.518	44.92
1067.763	-18.08
1068.008	-185.08
1068.253	-99.08
1068.498	69.92
1068.743	11.92
1068.988	-147.08
1069.233	-133.08
1069.478	82.92
1069.723	133.92
1069.968	-70.08
1070.213	-26.08
1070.458	81.92
1070.703	-10.08
1070.948	-197.08
1071.193	-94.08
1071.438	58.92
1071.683	96.92
1071.928	-31.08
1072.173	-58.08
1072.418	21.92
1072.663	-22.08
1072.908	-149.08
1073.152	-80.08
1073.397	81.92
1073.642	-28.08
1073.887	-88.08
1074.132	27.92
1074.377	38.92
1074.622	7.92
1074.867	-117.08
1075.112	-52.08
1075.357	133.92
1075.601	-21.08
1075.846	-81.08
1076.091	9.92
1076.336	66.92
1076.581	-69.08
1076.826	-171.08
1077.071	-66.08
1077.315	178.92
1077.56	108.92
1077.805	-104.08
1078.05	-63.08
1078.295	-9.08
1078.54	-47.08
1078.785	-173.08
1079.029	-93.08
1079.274	79.92
1079.519	-75.08
1079.764	-170.08
1080.009	-49.08
1080.253	42.92
1080.498	-50.08
1080.743	-207.08
1080.988	-62.08
1081.233	146.92
1081.478	72.92
1081.722	-122.08
1081.967	-4.08
1082.212	146.92
1082.457	24.92
1082.701	-110.08
1082.946	-79.08
1083.191	49.92
1083.436	-60.08
1083.681	-201.08
1083.925	-106.08
1084.17	-0.08
1084.415	31.92
1084.66	-182.08
1084.904	-82.08
1085.149	14.92
1085.394	-31.08
1085.639	-193.08
1085.883	-102.08
1086.128	144.92
1086.373	164.92
1086.617	-75.08
1086.862	-141.08
1087.107	-26.08
1087.352	-60.08
1087.596	-148.08
1087.841	-18.08
1088.086	33.92
1088.33	5.92
1088.575	-221.08
1088.82	-105.08
1089.064	52.92
1089.309	-72.08
1089.554	-190.08
1089.798	-162.08
1090.043	27.92
1090.288	-19.08
1090.533	-192.08
1090.777	-106.08
1091.022	40.92
1091.266	47.92
1091.511	-116.08
1091.756	-34.08
1092	104.92
1092.245	84.92
1092.49	-160.08
1092.734	-101.08
1092.979	86.92
1093.224	-32.08
1093.468	-176.08
1093.713	-119.08
1093.957	13.92
1094.202	-49.08
1094.447	-215.08
1094.691	-105.08
1094.936	43.92
1095.181	-3.08
1095.425	-188.08
1095.67	-146.08
1095.914	9.92
1096.159	-12.08
1096.403	-149.08
1096.648	-62.08
1096.893	54.92
1097.137	-81.08
1097.382	-232.08
1097.626	-152.08
1097.871	16.92
1098.115	-44.08
1098.36	-206.08
1098.605	-114.08
1098.849	-51.08
1099.094	-114.08
1099.338	-188.08
1099.583	-99.08
1099.827	129.92
1100.072	39.92
1100.316	-158.08
1100.561	-83.08
1100.805	58.92
1101.05	23.92
1101.294	-180.08
1101.539	-169.08
1101.783	-8.08
1102.028	-5.08
1102.273	-145.08
1102.517	-71.08
1102.761	46.92
1103.006	-73.08
1103.25	-289.08
1103.495	-177.08
1103.739	45.92
1103.984	99.92
1104.228	-99.08
1104.473	-39.08
1104.717	26.92
1104.962	4.92
1105.206	-104.08
1105.451	-142.08
1105.695	11.92
1105.94	-12.08
1106.184	-151.08
1106.429	-104.08
1106.673	-2.08
1106.917	63.92
1107.162	-167.08
1107.406	-21.08
1107.651	131.92
1107.895	-94.08
1108.14	-198.08
1108.384	-96.08
1108.628	133.92
1108.873	118.92
1109.117	-141.08
1109.362	-131.08
1109.606	-30.08
1109.85	-20.08
1110.095	-158.08
1110.339	-90.08
1110.584	96.92
1110.828	33.92
1111.072	-94.08
1111.317	-138.08
1111.561	-29.08
1111.806	-48.08
1112.05	-195.08
1112.294	-97.08
1112.539	22.92
1112.783	-14.08
1113.027	-132.08
1113.272	-119.08
1113.516	-30.08
1113.76	-54.08
1114.005	-155.08
1114.249	-90.08
1114.493	70.92
1114.738	97.92
1114.982	-41.08
1115.226	-85.08
1115.471	-10.08
1115.715	-27.08
1115.959	-191.08
1116.204	-168.08
1116.448	-8.08
1116.692	-106.08
1116.937	-186.08
1117.181	-25.08
1117.425	-28.08
1117.67	-104.08
1117.914	-162.08
1118.158	-86.08
1118.402	136.92
1118.647	40.92
1118.891	-85.08
1119.135	-30.08
1119.38	104.92
1119.624	10.92
1119.868	-147.08
1120.112	-168.08
1120.357	-67.08
1120.601	-135.08
1120.845	-224.08
1121.089	-142.08
1121.334	26.92
