Data from HR4C21111__31__09-59-45-546.txt Node

Date: Mon Feb 22 09:59:45 IST 2021
User: Kapil
Spectrometer: HR4C2111
Trigger mode: 4
Integration Time (sec): 2.300000E0
Scans to average: 1
Electric dark correction enabled: true
Nonlinearity correction enabled: false
Boxcar width: 0
XAxis mode: Wavelengths
Number of Pixels in Spectrum: 3648
>>>>>Begin Spectral Data<<<<<
189.472	-437.08
189.745	-437.08
190.017	-437.08
190.289	-458.08
190.561	-299.08
190.834	-21.08
191.106	-119.08
191.378	8.92
191.65	-3.08
191.923	-144.08
192.195	-78.08
192.467	136.92
192.739	96.92
193.011	-31.08
193.284	77.92
193.556	162.92
193.828	-5.08
194.1	-82.08
194.372	-100.08
194.644	57.92
194.916	80.92
195.188	-138.08
195.46	-81.08
195.732	41.92
196.004	-10.08
196.276	-99.08
196.548	-52.08
196.82	75.92
197.092	72.92
197.364	-112.08
197.636	-78.08
197.908	22.92
198.18	-51.08
198.452	-76.08
198.724	-37.08
198.996	52.92
199.268	79.92
199.54	-20.08
199.811	-100.08
200.083	98.92
200.355	25.92
200.627	-188.08
200.899	-59.08
201.171	44.92
201.442	-47.08
201.714	-173.08
201.986	-89.08
202.258	64.92
202.529	100.92
202.801	-2.08
203.073	79.92
203.345	177.92
203.616	13.92
203.888	-137.08
204.16	-140.08
204.431	87.92
204.703	-4.08
204.974	-132.08
205.246	4.92
205.518	184.92
205.789	-8.08
206.061	-133.08
206.332	-99.08
206.604	27.92
206.876	106.92
207.147	129.92
207.419	13.92
207.69	127.92
207.962	-23.08
208.233	-175.08
208.505	18.92
208.776	180.92
209.047	75.92
209.319	-117.08
209.59	-68.08
209.862	123.92
210.133	-24.08
210.404	-132.08
210.676	-101.08
210.947	73.92
211.219	63.92
211.49	-118.08
211.761	-49.08
212.033	36.92
212.304	-37.08
212.575	-186.08
212.846	-80.08
213.118	35.92
213.389	-59.08
213.66	-103.08
213.931	-35.08
214.203	46.92
214.474	-25.08
214.745	-119.08
215.016	128.92
215.287	452.92
215.559	71.92
215.83	-109.08
216.101	-58.08
216.372	4.92
216.643	67.92
216.914	17.92
217.185	-74.08
217.456	152.92
217.727	39.92
217.998	-140.08
218.269	-64.08
218.54	35.92
218.811	3.92
219.082	-84.08
219.353	-63.08
219.624	-18.08
219.895	-35.08
220.166	-116.08
220.437	-108.08
220.708	92.92
220.979	-7.08
221.25	-134.08
221.521	-81.08
221.792	35.92
222.063	100.92
222.334	43.92
222.604	191.92
222.875	175.92
223.146	95.92
223.417	-157.08
223.688	-23.08
223.958	128.92
224.229	-37.08
224.5	-187.08
224.771	-90.08
225.041	63.92
225.312	58.92
225.583	-103.08
225.854	-63.08
226.124	85.92
226.395	-9.08
226.666	-125.08
226.936	-101.08
227.207	78.92
227.478	-53.08
227.748	-108.08
228.019	41.92
228.289	255.92
228.56	-16.08
228.831	-41.08
229.101	51.92
229.372	62.92
229.642	-19.08
229.913	-146.08
230.183	-109.08
230.454	21.92
230.724	18.92
230.995	-78.08
231.265	-54.08
231.536	74.92
231.806	60.92
232.076	-104.08
232.347	-109.08
232.617	40.92
232.888	44.92
233.158	-49.08
233.428	-119.08
233.699	-17.08
233.969	-44.08
234.239	-152.08
234.51	-76.08
234.78	59.92
235.05	-6.08
235.321	-108.08
235.591	-65.08
235.861	63.92
236.131	-44.08
236.402	-185.08
236.672	-80.08
236.942	52.92
237.212	52.92
237.483	-54.08
237.753	5.92
238.023	169.92
238.293	14.92
238.563	-78.08
238.833	-107.08
239.103	64.92
239.374	-10.08
239.644	-133.08
239.914	-11.08
240.184	145.92
240.454	3.92
240.724	-155.08
240.994	-52.08
241.264	33.92
241.534	72.92
241.804	0.92
242.074	-75.08
242.344	-25.08
242.614	-52.08
242.884	-171.08
243.154	-120.08
243.424	55.92
243.694	74.92
243.964	-85.08
244.234	-67.08
244.503	141.92
244.773	25.92
245.043	-223.08
245.313	-131.08
245.583	141.92
245.853	95.92
246.123	-165.08
246.392	-108.08
246.662	2.92
246.932	-17.08
247.202	-180.08
247.471	-53.08
247.741	283.92
248.011	105.92
248.281	-145.08
248.55	-80.08
248.82	78.92
249.09	3.92
249.359	-90.08
249.629	-87.08
249.899	39.92
250.168	47.92
250.438	-34.08
250.708	-96.08
250.977	89.92
251.247	64.92
251.516	-107.08
251.786	-38.08
252.055	119.92
252.325	26.92
252.595	-90.08
252.864	-53.08
253.134	57.92
253.403	-27.08
253.673	-166.08
253.942	-91.08
254.212	47.92
254.481	-6.08
254.75	-146.08
255.02	-79.08
255.289	74.92
255.559	-10.08
255.828	-128.08
256.097	-34.08
256.367	31.92
256.636	-60.08
256.906	-144.08
257.175	-21.08
257.444	238.92
257.714	68.92
257.983	-67.08
258.252	-30.08
258.521	9.92
258.791	54.92
259.06	-96.08
259.329	-46.08
259.598	48.92
259.868	-7.08
260.137	-94.08
260.406	18.92
260.675	90.92
260.944	32.92
261.214	-120.08
261.483	-36.08
261.752	184.92
262.021	27.92
262.29	-159.08
262.559	-120.08
262.828	19.92
263.097	-47.08
263.366	-200.08
263.635	-81.08
263.905	124.92
264.174	-0.08
264.443	-216.08
264.712	-97.08
264.981	59.92
265.25	-32.08
265.519	-142.08
265.788	-137.08
266.057	39.92
266.325	63.92
266.594	-52.08
266.863	-114.08
267.132	10.92
267.401	-7.08
267.67	-195.08
267.939	-145.08
268.208	29.92
268.477	81.92
268.745	-126.08
269.014	-81.08
269.283	148.92
269.552	41.92
269.821	-111.08
270.089	-6.08
270.358	12.92
270.627	-22.08
270.896	-144.08
271.164	-158.08
271.433	27.92
271.702	77.92
271.971	-157.08
272.239	-138.08
272.508	28.92
272.777	-28.08
273.045	-18.08
273.314	-27.08
273.583	93.92
273.851	-12.08
274.12	-148.08
274.388	-129.08
274.657	-9.08
274.926	-10.08
275.194	-146.08
275.463	-71.08
275.731	31.92
276	199.92
276.268	408.92
276.537	-90.08
276.805	24.92
277.074	31.92
277.342	-167.08
277.611	-95.08
277.879	124.92
278.148	39.92
278.416	-139.08
278.684	-88.08
278.953	8.92
279.221	-24.08
279.49	-178.08
279.758	-86.08
280.026	12.92
280.295	6.92
280.563	-106.08
280.831	926.92
281.1	2220.92
281.368	217.92
281.636	-92.08
281.904	-101.08
282.173	1.92
282.441	-43.08
282.709	-74.08
282.977	47.92
283.246	57.92
283.514	-22.08
283.782	-38.08
284.05	34.92
284.318	62.92
284.587	-22.08
284.855	-110.08
285.123	-34.08
285.391	69.92
285.659	48.92
285.927	-141.08
286.195	-48.08
286.463	67.92
286.732	0.92
287	-98.08
287.268	-48.08
287.536	30.92
287.804	-30.08
288.072	-128.08
288.34	-75.08
288.608	78.92
288.876	-23.08
289.144	-113.08
289.412	-5.08
289.68	61.92
289.948	-24.08
290.215	-106.08
290.483	-76.08
290.751	108.92
291.019	88.92
291.287	-163.08
291.555	-114.08
291.823	32.92
292.091	-8.08
292.358	-62.08
292.626	-22.08
292.894	84.92
293.162	58.92
293.43	-101.08
293.697	-78.08
293.965	46.92
294.233	-29.08
294.501	-167.08
294.768	-74.08
295.036	78.92
295.304	59.92
295.572	-117.08
295.839	-96.08
296.107	109.92
296.375	2.92
296.642	-127.08
296.91	-115.08
297.178	58.92
297.445	182.92
297.713	99.92
297.98	-69.08
298.248	-15.08
298.516	-29.08
298.783	-123.08
299.051	-105.08
299.318	20.92
299.586	-23.08
299.853	-97.08
300.121	-91.08
300.388	56.92
300.656	3.92
300.923	-139.08
301.191	-41.08
301.458	48.92
301.726	-18.08
301.993	-139.08
302.26	-80.08
302.528	48.92
302.795	4.92
303.063	-70.08
303.33	-44.08
303.597	31.92
303.865	31.92
304.132	-108.08
304.399	-118.08
304.667	-19.08
304.934	29.92
305.201	-106.08
305.469	-21.08
305.736	64.92
306.003	45.92
306.27	-40.08
306.538	-79.08
306.805	1.92
307.072	-15.08
307.339	-73.08
307.606	-38.08
307.874	164.92
308.141	79.92
308.408	-119.08
308.675	-96.08
308.942	-30.08
309.209	-61.08
309.477	-115.08
309.744	-94.08
310.011	23.92
310.278	50.92
310.545	-8.08
310.812	-42.08
311.079	151.92
311.346	213.92
311.613	67.92
311.88	-4.08
312.147	-55.08
312.414	-32.08
312.681	-93.08
312.948	-19.08
313.215	123.92
313.482	95.92
313.749	-84.08
314.016	-190.08
314.283	-60.08
314.55	60.92
314.817	-93.08
315.083	-119.08
315.35	-65.08
315.617	-125.08
315.884	-127.08
316.151	72.92
316.418	172.92
316.684	-18.08
316.951	-162.08
317.218	-89.08
317.485	7.92
317.752	-48.08
318.018	-112.08
318.285	-3.08
318.552	35.92
318.819	-58.08
319.085	-134.08
319.352	-45.08
319.619	48.92
319.885	-27.08
320.152	-189.08
320.419	-96.08
320.685	44.92
320.952	-4.08
321.219	-42.08
321.485	94.92
321.752	20.92
322.019	-46.08
322.285	31.92
322.552	-9.08
322.818	137.92
323.085	-14.08
323.351	-121.08
323.618	-5.08
323.884	47.92
324.151	-55.08
324.417	-21.08
324.684	-70.08
324.95	-42.08
325.217	-128.08
325.483	-161.08
325.75	-15.08
326.016	7.92
326.283	-17.08
326.549	-174.08
326.815	-71.08
327.082	108.92
327.348	19.92
327.615	-100.08
327.881	-28.08
328.147	123.92
328.414	131.92
328.68	15.92
328.946	-37.08
329.212	42.92
329.479	16.92
329.745	-96.08
330.011	-79.08
330.278	28.92
330.544	-42.08
330.81	-30.08
331.076	-23.08
331.342	-25.08
331.609	-31.08
331.875	-80.08
332.141	-82.08
332.407	33.92
332.673	2.92
332.94	-8.08
333.206	-44.08
333.472	59.92
333.738	92.92
334.004	-105.08
334.27	-13.08
334.536	12.92
334.802	-27.08
335.068	-65.08
335.334	33.92
335.6	59.92
335.866	-15.08
336.132	-149.08
336.398	-74.08
336.664	-0.08
336.93	-22.08
337.196	-73.08
337.462	-0.08
337.728	42.92
337.994	-33.08
338.26	-76.08
338.526	-23.08
338.792	-30.08
339.058	-16.08
339.324	-130.08
339.59	13.92
339.856	82.92
340.121	-43.08
340.387	-109.08
340.653	96.92
340.919	170.92
341.185	84.92
341.45	-54.08
341.716	49.92
341.982	135.92
342.248	-47.08
342.514	-81.08
342.779	4.92
343.045	45.92
343.311	-1.08
343.576	-75.08
343.842	-20.08
344.108	136.92
344.374	22.92
344.639	-93.08
344.905	-67.08
345.171	81.92
345.436	-33.08
345.702	-70.08
345.967	79.92
346.233	97.92
346.499	34.92
346.764	-138.08
347.03	-35.08
347.295	-3.08
347.561	26.92
347.826	-18.08
348.092	-81.08
348.357	12.92
348.623	7.92
348.888	-88.08
349.154	-50.08
349.419	72.92
349.685	31.92
349.95	-23.08
350.216	-1.08
350.481	79.92
350.747	-1.08
351.012	-115.08
351.277	-54.08
351.543	69.92
351.808	22.92
352.074	-125.08
352.339	-61.08
352.604	92.92
352.87	75.92
353.135	-60.08
353.4	-26.08
353.666	48.92
353.931	43.92
354.196	-93.08
354.461	-64.08
354.727	103.92
354.992	72.92
355.257	-75.08
355.522	41.92
355.788	72.92
356.053	140.92
356.318	-14.08
356.583	-20.08
356.848	171.92
357.113	295.92
357.379	30.92
357.644	0.92
357.909	188.92
358.174	233.92
358.439	-30.08
358.704	32.92
358.969	148.92
359.234	161.92
359.499	9.92
359.765	75.92
360.03	183.92
360.295	199.92
360.56	32.92
360.825	81.92
361.09	307.92
361.355	144.92
361.62	83.92
361.885	119.92
362.15	128.92
362.415	151.92
362.679	56.92
362.944	212.92
363.209	259.92
363.474	261.92
363.739	193.92
364.004	132.92
364.269	206.92
364.534	252.92
364.799	215.92
365.063	227.92
365.328	328.92
365.593	322.92
365.858	217.92
366.123	212.92
366.387	347.92
366.652	271.92
366.917	181.92
367.182	240.92
367.447	394.92
367.711	349.92
367.976	285.92
368.241	375.92
368.505	450.92
368.77	345.92
369.035	344.92
369.299	414.92
369.564	439.92
369.829	364.92
370.093	340.92
370.358	350.92
370.623	454.92
370.887	480.92
371.152	362.92
371.416	456.92
371.681	499.92
371.946	409.92
372.21	376.92
372.475	515.92
372.739	565.92
373.004	519.92
373.268	499.92
373.533	571.92
373.797	616.92
374.062	613.92
374.326	481.92
374.591	593.92
374.855	668.92
375.12	617.92
375.384	469.92
375.648	581.92
375.913	731.92
376.177	757.92
376.442	628.92
376.706	627.92
376.97	780.92
377.235	760.92
377.499	720.92
377.763	734.92
378.028	749.92
378.292	792.92
378.556	743.92
378.821	720.92
379.085	809.92
379.349	764.92
379.614	725.92
379.878	855.92
380.142	1025.92
380.406	948.92
380.671	978.92
380.935	1122.92
381.199	1227.92
381.463	1107.92
381.727	1065.92
381.991	1031.92
382.256	1123.92
382.52	1095.92
382.784	1109.92
383.048	1262.92
383.312	1211.92
383.576	1194.92
383.84	1153.92
384.104	1182.92
384.369	1277.92
384.633	1221.92
384.897	1135.92
385.161	1295.92
385.425	1419.92
385.689	1354.92
385.953	1301.92
386.217	1312.92
386.481	1426.92
386.745	1476.92
387.009	1450.92
387.273	1416.92
387.537	1495.92
387.801	1563.92
388.064	1494.92
388.328	1601.92
388.592	1682.92
388.856	1656.92
389.12	1591.92
389.384	1674.92
389.648	1748.92
389.912	1811.92
390.176	1839.92
390.439	1960.92
390.703	1798.92
390.967	1784.92
391.231	1759.92
391.495	1836.92
391.758	1924.92
392.022	1960.92
392.286	1861.92
392.55	1899.92
392.813	2004.92
393.077	2084.92
393.341	2041.92
393.605	2131.92
393.868	2109.92
394.132	2121.92
394.396	2082.92
394.659	2256.92
394.923	2223.92
395.187	2133.92
395.45	2117.92
395.714	2212.92
395.978	2274.92
396.241	2298.92
396.505	2230.92
396.768	2322.92
397.032	2440.92
397.295	2445.92
397.559	2379.92
397.823	2367.92
398.086	2501.92
398.35	2448.92
398.613	2390.92
398.877	2509.92
399.14	2680.92
399.404	2754.92
399.667	2620.92
399.931	2580.92
400.194	2703.92
400.457	2713.92
400.721	2734.92
400.984	2844.92
401.248	2787.92
401.511	2751.92
401.775	2650.92
402.038	2735.92
402.301	2949.92
402.565	2963.92
402.828	2796.92
403.091	2867.92
403.355	3033.92
403.618	3003.92
403.881	3029.92
404.145	3088.92
404.408	3150.92
404.671	3092.92
404.934	3110.92
405.198	3166.92
405.461	3213.92
405.724	3282.92
405.987	3290.92
406.251	3328.92
406.514	3442.92
406.777	3312.92
407.04	3256.92
407.303	3237.92
407.567	3401.92
407.83	3508.92
408.093	3334.92
408.356	3476.92
408.619	3574.92
408.882	3597.92
409.145	3510.92
409.408	3479.92
409.672	3629.92
409.935	3544.92
410.198	3447.92
410.461	3542.92
410.724	3773.92
410.987	3680.92
411.25	3512.92
411.513	3701.92
411.776	3743.92
412.039	3632.92
412.302	3589.92
412.565	3658.92
412.828	3703.92
413.091	3715.92
413.354	3604.92
413.617	3593.92
413.879	3669.92
414.142	3673.92
414.405	3493.92
414.668	3544.92
414.931	3699.92
415.194	3670.92
415.457	3550.92
415.72	3619.92
415.983	3634.92
416.245	3708.92
416.508	3594.92
416.771	3509.92
417.034	3658.92
417.297	3653.92
417.559	3614.92
417.822	3546.92
418.085	3639.92
418.348	3658.92
418.61	3554.92
418.873	3548.92
419.136	3588.92
419.399	3573.92
419.661	3630.92
419.924	3600.92
420.187	3664.92
420.449	3673.92
420.712	3655.92
420.975	3650.92
421.237	3687.92
421.5	3697.92
421.762	3809.92
422.025	3833.92
422.288	3912.92
422.55	3751.92
422.813	3631.92
423.075	3756.92
423.338	3867.92
423.601	3931.92
423.863	3867.92
424.126	3887.92
424.388	3992.92
424.651	3981.92
424.913	3949.92
425.176	3965.92
425.438	3977.92
425.701	3997.92
425.963	3909.92
426.225	3947.92
426.488	4006.92
426.75	3993.92
427.013	3983.92
427.275	4075.92
427.538	4080.92
427.8	4083.92
428.062	3967.92
428.325	4045.92
428.587	4139.92
428.849	4133.92
429.112	4156.92
429.374	4128.92
429.636	4141.92
429.899	4245.92
430.161	4146.92
430.423	4224.92
430.686	4409.92
430.948	4366.92
431.21	4180.92
431.472	4116.92
431.735	4250.92
431.997	4292.92
432.259	4262.92
432.521	4143.92
432.783	4322.92
433.046	4313.92
433.308	4166.92
433.57	4185.92
433.832	4450.92
434.094	4302.92
434.356	4167.92
434.618	4301.92
434.881	4366.92
435.143	4420.92
435.405	4419.92
435.667	4353.92
435.929	4403.92
436.191	4402.92
436.453	4330.92
436.715	4415.92
436.977	4588.92
437.239	4646.92
437.501	4495.92
437.763	4526.92
438.025	4612.92
438.287	4549.92
438.549	4544.92
438.811	4492.92
439.073	4546.92
439.335	4563.92
439.597	4483.92
439.859	4464.92
440.121	4612.92
440.383	4523.92
440.645	4491.92
440.907	4579.92
441.168	4610.92
441.43	4565.92
441.692	4577.92
441.954	4585.92
442.216	4625.92
442.478	4589.92
442.74	4477.92
443.001	4602.92
443.263	4805.92
443.525	4667.92
443.787	4511.92
444.048	4512.92
444.31	4538.92
444.572	4586.92
444.834	4564.92
445.095	4563.92
445.357	4759.92
445.619	4597.92
445.881	4457.92
446.142	4526.92
446.404	4547.92
446.666	4582.92
446.927	4562.92
447.189	4667.92
447.451	4757.92
447.712	4604.92
447.974	4466.92
448.235	4483.92
448.497	4565.92
448.759	4539.92
449.02	4567.92
449.282	4481.92
449.543	4616.92
449.805	4665.92
450.066	4440.92
450.328	4530.92
450.59	4744.92
450.851	4544.92
451.113	4417.92
451.374	4410.92
451.636	4647.92
451.897	4671.92
452.158	4562.92
452.42	4665.92
452.681	4696.92
452.943	4467.92
453.204	4481.92
453.466	4550.92
453.727	4513.92
453.988	4569.92
454.25	4505.92
454.511	4522.92
454.773	4589.92
455.034	4762.92
455.295	4470.92
455.557	4632.92
455.818	4653.92
456.079	4613.92
456.341	4686.92
456.602	4765.92
456.863	4784.92
457.124	4609.92
457.386	4484.92
457.647	4516.92
457.908	4594.92
458.169	4747.92
458.431	4593.92
458.692	4660.92
458.953	4702.92
459.214	4676.92
459.476	4840.92
459.737	4960.92
459.998	4968.92
460.259	4825.92
460.52	4788.92
460.781	4970.92
461.043	5125.92
461.304	4996.92
461.565	4784.92
461.826	4848.92
462.087	5039.92
462.348	5184.92
462.609	5175.92
462.87	5147.92
463.131	5070.92
463.392	5246.92
463.653	5269.92
463.914	5244.92
464.175	5202.92
464.436	5296.92
464.697	5308.92
464.958	5137.92
465.219	5214.92
465.48	5309.92
465.741	5353.92
466.002	5248.92
466.263	5460.92
466.524	5513.92
466.785	5338.92
467.046	5468.92
467.307	5641.92
467.568	5692.92
467.829	5656.92
468.089	5620.92
468.35	5681.92
468.611	5610.92
468.872	5557.92
469.133	5757.92
469.394	5992.92
469.655	6076.92
469.915	5926.92
470.176	5784.92
470.437	5885.92
470.698	6048.92
470.958	6071.92
471.219	6069.92
471.48	6229.92
471.741	6347.92
472.001	6329.92
472.262	6328.92
472.523	6571.92
472.784	6706.92
473.044	6580.92
473.305	6662.92
473.566	6637.92
473.826	6740.92
474.087	6657.92
474.348	6761.92
474.608	6997.92
474.869	6948.92
475.129	6850.92
475.39	6993.92
475.651	7132.92
475.911	7251.92
476.172	7124.92
476.432	7316.92
476.693	7568.92
476.953	7393.92
477.214	7453.92
477.475	7461.92
477.735	7489.92
477.996	7682.92
478.256	7538.92
478.517	7651.92
478.777	7819.92
479.038	7965.92
479.298	8024.92
479.558	8042.92
479.819	8138.92
480.079	8152.92
480.34	8227.92
480.6	8184.92
480.861	8322.92
481.121	8402.92
481.381	8406.92
481.642	8465.92
481.902	8518.92
482.162	8474.92
482.423	8490.92
482.683	8644.92
482.943	8761.92
483.204	8691.92
483.464	8723.92
483.724	8807.92
483.985	8945.92
484.245	8983.92
484.505	8908.92
484.765	9045.92
485.026	9119.92
485.286	9214.92
485.546	9194.92
485.806	9241.92
486.067	9283.92
486.327	9188.92
486.587	9200.92
486.847	9320.92
487.107	9423.92
487.368	9438.92
487.628	9427.92
487.888	9502.92
488.148	9602.92
488.408	9501.92
488.668	9568.92
488.928	9597.92
489.188	9626.92
489.449	9739.92
489.709	9681.92
489.969	9744.92
490.229	9894.92
490.489	9919.92
490.749	9790.92
491.009	9707.92
491.269	9765.92
491.529	9802.92
491.789	9789.92
492.049	9907.92
492.309	9998.92
492.569	9914.92
492.829	9872.92
493.089	9853.92
493.349	10077.92
493.609	9959.92
493.869	9837.92
494.129	10020.92
494.389	10065.92
494.648	9985.92
494.908	9939.92
495.168	10037.92
495.428	10119.92
495.688	10106.92
495.948	9990.92
496.208	9989.92
496.467	10016.92
496.727	10073.92
496.987	10070.92
497.247	10067.92
497.507	10165.92
497.767	10238.92
498.026	9998.92
498.286	10124.92
498.546	10298.92
498.806	10183.92
499.065	10203.92
499.325	10121.92
499.585	10152.92
499.845	10198.92
500.104	10141.92
500.364	10222.92
500.624	10242.92
500.883	10220.92
501.143	10213.92
501.403	10224.92
501.662	10305.92
501.922	10261.92
502.182	10135.92
502.441	10115.92
502.701	10190.92
502.96	10352.92
503.22	10294.92
503.48	10169.92
503.739	10228.92
503.999	10145.92
504.258	10089.92
504.518	10197.92
504.777	10257.92
505.037	10194.92
505.296	10159.92
505.556	10192.92
505.815	10334.92
506.075	10411.92
506.334	10279.92
506.594	10055.92
506.853	10169.92
507.113	10214.92
507.372	10015.92
507.632	10143.92
507.891	10227.92
508.151	10264.92
508.41	10108.92
508.669	10151.92
508.929	10248.92
509.188	10213.92
509.447	10192.92
509.707	10175.92
509.966	10244.92
510.226	10267.92
510.485	10254.92
510.744	10272.92
511.004	10323.92
511.263	10172.92
511.522	10162.92
511.781	10125.92
512.041	10236.92
512.3	10254.92
512.559	10277.92
512.818	10280.92
513.078	10309.92
513.337	10297.92
513.596	10207.92
513.855	10202.92
514.115	10321.92
514.374	10311.92
514.633	10189.92
514.892	10144.92
515.151	10320.92
515.41	10392.92
515.67	10293.92
515.929	10315.92
516.188	10382.92
516.447	10317.92
516.706	10263.92
516.965	10352.92
517.224	10395.92
517.483	10404.92
517.743	10247.92
518.002	10329.92
518.261	10462.92
518.52	10459.92
518.779	10328.92
519.038	10295.92
519.297	10315.92
519.556	10317.92
519.815	10269.92
520.074	10257.92
520.333	10393.92
520.592	10402.92
520.851	10264.92
521.11	10404.92
521.369	10475.92
521.628	10324.92
521.887	10263.92
522.145	10283.92
522.404	10353.92
522.663	10402.92
522.922	10277.92
523.181	10285.92
523.44	10394.92
523.699	10417.92
523.958	10256.92
524.217	10306.92
524.475	10356.92
524.734	10309.92
524.993	10276.92
525.252	10342.92
525.511	10390.92
525.769	10326.92
526.028	10243.92
526.287	10336.92
526.546	10381.92
526.805	10340.92
527.063	10261.92
527.322	10275.92
527.581	10332.92
527.839	10309.92
528.098	10253.92
528.357	10234.92
528.616	10289.92
528.874	10325.92
529.133	10284.92
529.392	10325.92
529.65	10269.92
529.909	10220.92
530.168	10163.92
530.426	10187.92
530.685	10302.92
530.943	10279.92
531.202	10174.92
531.461	10205.92
531.719	10349.92
531.978	10290.92
532.236	10160.92
532.495	10266.92
532.753	10340.92
533.012	10234.92
533.271	10180.92
533.529	10181.92
533.788	10282.92
534.046	10181.92
534.305	10191.92
534.563	10391.92
534.822	10442.92
535.08	10328.92
535.338	10253.92
535.597	10301.92
535.855	10417.92
536.114	10302.92
536.372	10224.92
536.631	10327.92
536.889	10373.92
537.147	10332.92
537.406	10189.92
537.664	10316.92
537.923	10395.92
538.181	10416.92
538.439	10217.92
538.698	10304.92
538.956	10394.92
539.214	10392.92
539.473	10315.92
539.731	10380.92
539.989	10584.92
540.248	10492.92
540.506	10475.92
540.764	10478.92
541.022	10527.92
541.281	10632.92
541.539	10513.92
541.797	10500.92
542.055	10639.92
542.314	10637.92
542.572	10693.92
542.83	10622.92
543.088	10781.92
543.346	10725.92
543.604	10636.92
543.863	10758.92
544.121	10935.92
544.379	10834.92
544.637	10705.92
544.895	10874.92
545.153	11067.92
545.411	10888.92
545.67	10763.92
545.928	10864.92
546.186	11010.92
546.444	11035.92
546.702	10913.92
546.96	11042.92
547.218	11154.92
547.476	11165.92
547.734	11092.92
547.992	11117.92
548.25	11348.92
548.508	11275.92
548.766	11217.92
549.024	11269.92
549.282	11356.92
549.54	11463.92
549.798	11506.92
550.056	11536.92
550.314	11607.92
550.572	11466.92
550.83	11410.92
551.088	11589.92
551.346	11703.92
551.603	11768.92
551.861	11706.92
552.119	11745.92
552.377	11860.92
552.635	11796.92
552.893	11658.92
553.151	11733.92
553.409	11952.92
553.666	12031.92
553.924	11963.92
554.182	11968.92
554.44	12112.92
554.698	12186.92
554.955	12118.92
555.213	12064.92
555.471	12190.92
555.729	12121.92
555.986	11956.92
556.244	12117.92
556.502	12366.92
556.76	12252.92
557.017	12224.92
557.275	12278.92
557.533	12487.92
557.79	12470.92
558.048	12315.92
558.306	12402.92
558.563	12529.92
558.821	12497.92
559.079	12441.92
559.336	12492.92
559.594	12532.92
559.852	12488.92
560.109	12399.92
560.367	12523.92
560.624	12668.92
560.882	12651.92
561.14	12623.92
561.397	12713.92
561.655	12676.92
561.912	12675.92
562.17	12543.92
562.427	12610.92
562.685	12754.92
562.942	12764.92
563.2	12675.92
563.457	12715.92
563.715	12757.92
563.972	12793.92
564.23	12657.92
564.487	12595.92
564.745	12712.92
565.002	12718.92
565.26	12641.92
565.517	12606.92
565.774	12664.92
566.032	12729.92
566.289	12627.92
566.547	12636.92
566.804	12731.92
567.061	12690.92
567.319	12614.92
567.576	12689.92
567.833	12789.92
568.091	12807.92
568.348	12727.92
568.605	12716.92
568.863	12737.92
569.12	12626.92
569.377	12560.92
569.635	12547.92
569.892	12610.92
570.149	12528.92
570.406	12379.92
570.664	12436.92
570.921	12615.92
571.178	12485.92
571.435	12450.92
571.693	12461.92
571.95	12434.92
572.207	12335.92
572.464	12292.92
572.721	12378.92
572.979	12366.92
573.236	12304.92
573.493	12201.92
573.75	12212.92
574.007	12317.92
574.264	12161.92
574.521	12081.92
574.779	12042.92
575.036	12072.92
575.293	12052.92
575.55	11939.92
575.807	11905.92
576.064	11893.92
576.321	11844.92
576.578	11725.92
576.835	11753.92
577.092	11901.92
577.349	11717.92
577.606	11531.92
577.863	11543.92
578.12	11585.92
578.377	11534.92
578.634	11260.92
578.891	11263.92
579.148	11374.92
579.405	11276.92
579.662	11164.92
579.919	11185.92
580.176	11094.92
580.433	11123.92
580.69	10998.92
580.947	10939.92
581.204	10921.92
581.461	10832.92
581.717	10670.92
581.974	10751.92
582.231	10752.92
582.488	10632.92
582.745	10376.92
583.002	10387.92
583.259	10621.92
583.515	10547.92
583.772	10297.92
584.029	10265.92
584.286	10317.92
584.543	10099.92
584.799	10072.92
585.056	10105.92
585.313	10166.92
585.57	10109.92
585.826	9906.92
586.083	10002.92
586.34	10091.92
586.597	9774.92
586.853	9588.92
587.11	9672.92
587.367	9825.92
587.623	9758.92
587.88	9568.92
588.137	9425.92
588.393	9515.92
588.65	9474.92
588.907	9321.92
589.163	9338.92
589.42	9279.92
589.677	9230.92
589.933	9122.92
590.19	9165.92
590.446	9238.92
590.703	9231.92
590.96	9015.92
591.216	8965.92
591.473	8946.92
591.729	8922.92
591.986	8905.92
592.242	8987.92
592.499	9112.92
592.755	8892.92
593.012	8672.92
593.268	8823.92
593.525	8798.92
593.781	8815.92
594.038	8706.92
594.294	8706.92
594.551	8728.92
594.807	8628.92
595.064	8594.92
595.32	8567.92
595.576	8674.92
595.833	8661.92
596.089	8527.92
596.346	8615.92
596.602	8627.92
596.858	8672.92
597.115	8521.92
597.371	8531.92
597.628	8507.92
597.884	8443.92
598.14	8424.92
598.397	8590.92
598.653	8599.92
598.909	8465.92
599.166	8371.92
599.422	8384.92
599.678	8427.92
599.934	8420.92
600.191	8305.92
600.447	8312.92
600.703	8352.92
600.959	8312.92
601.216	8106.92
601.472	8211.92
601.728	8256.92
601.984	8193.92
602.241	8168.92
602.497	8247.92
602.753	8382.92
603.009	8244.92
603.265	8164.92
603.521	8287.92
603.778	8400.92
604.034	8233.92
604.29	8156.92
604.546	8222.92
604.802	8304.92
605.058	8233.92
605.314	8137.92
605.571	8172.92
605.827	8184.92
606.083	8138.92
606.339	8058.92
606.595	8148.92
606.851	8281.92
607.107	8306.92
607.363	8063.92
607.619	8103.92
607.875	8308.92
608.131	8276.92
608.387	8016.92
608.643	8070.92
608.899	8145.92
609.155	8097.92
609.411	8062.92
609.667	8130.92
609.923	8136.92
610.179	8102.92
610.435	7940.92
610.691	7978.92
610.947	8071.92
611.203	7981.92
611.459	7911.92
611.714	8004.92
611.97	8124.92
612.226	8040.92
612.482	7827.92
612.738	7989.92
612.994	8161.92
613.25	7924.92
613.505	7797.92
613.761	7812.92
614.017	7910.92
614.273	7880.92
614.529	7804.92
614.785	7751.92
615.04	7822.92
615.296	7801.92
615.552	7804.92
615.808	7788.92
616.063	7786.92
616.319	7788.92
616.575	7610.92
616.831	7663.92
617.086	7876.92
617.342	7819.92
617.598	7701.92
617.854	7705.92
618.109	7765.92
618.365	7597.92
618.621	7491.92
618.876	7596.92
619.132	7679.92
619.388	7565.92
619.643	7377.92
619.899	7538.92
620.155	7696.92
620.41	7578.92
620.666	7392.92
620.921	7475.92
621.177	7596.92
621.433	7588.92
621.688	7452.92
621.944	7387.92
622.199	7466.92
622.455	7407.92
622.71	7258.92
622.966	7315.92
623.221	7303.92
623.477	7278.92
623.732	7247.92
623.988	7192.92
624.243	7285.92
624.499	7241.92
624.754	7082.92
625.01	7118.92
625.265	7190.92
625.521	7184.92
625.776	7097.92
626.032	7097.92
626.287	7121.92
626.543	7108.92
626.798	6983.92
627.053	6973.92
627.309	7035.92
627.564	6954.92
627.82	6958.92
628.075	6993.92
628.33	6933.92
628.586	6814.92
628.841	6689.92
629.096	6855.92
629.352	6937.92
629.607	6786.92
629.862	6707.92
630.118	6830.92
630.373	6769.92
630.628	6783.92
630.884	6632.92
631.139	6672.92
631.394	6800.92
631.649	6733.92
631.905	6542.92
632.16	6592.92
632.415	6796.92
632.67	6567.92
632.926	6409.92
633.181	6409.92
633.436	6590.92
633.691	6501.92
633.946	6360.92
634.202	6367.92
634.457	6488.92
634.712	6373.92
634.967	6247.92
635.222	6268.92
635.477	6368.92
635.733	6315.92
635.988	6158.92
636.243	6213.92
636.498	6351.92
636.753	6294.92
637.008	6128.92
637.263	6191.92
637.518	6228.92
637.773	6157.92
638.028	6053.92
638.283	6109.92
638.539	6167.92
638.794	6070.92
639.049	5967.92
639.304	5965.92
639.559	6011.92
639.814	5991.92
640.069	5886.92
640.324	5845.92
640.579	5952.92
640.834	5925.92
641.089	5795.92
641.344	5877.92
641.598	6060.92
641.853	5891.92
642.108	5699.92
642.363	5671.92
642.618	5846.92
642.873	5778.92
643.128	5614.92
643.383	5640.92
643.638	5681.92
643.893	5755.92
644.148	5706.92
644.402	5567.92
644.657	5615.92
644.912	5575.92
645.167	5560.92
645.422	5628.92
645.677	5602.92
645.931	5619.92
646.186	5622.92
646.441	5518.92
646.696	5422.92
646.951	5444.92
647.205	5451.92
647.46	5368.92
647.715	5393.92
647.97	5566.92
648.224	5655.92
648.479	5473.92
648.734	5533.92
648.989	5474.92
649.243	5352.92
649.498	5308.92
649.753	5382.92
650.007	5436.92
650.262	5291.92
650.517	5298.92
650.771	5343.92
651.026	5255.92
651.281	5127.92
651.535	5237.92
651.79	5261.92
652.045	5268.92
652.299	5207.92
652.554	5185.92
652.809	5259.92
653.063	5392.92
653.318	5265.92
653.572	5122.92
653.827	5233.92
654.081	5186.92
654.336	5058.92
654.591	5072.92
654.845	5155.92
655.1	5074.92
655.354	5035.92
655.609	5098.92
655.863	5186.92
656.118	5200.92
656.372	5059.92
656.627	5050.92
656.881	5109.92
657.136	5057.92
657.39	4974.92
657.645	5071.92
657.899	5176.92
658.153	5059.92
658.408	4981.92
658.662	5019.92
658.917	5066.92
659.171	4958.92
659.426	4872.92
659.68	4933.92
659.934	5104.92
660.189	5057.92
660.443	4894.92
660.697	5077.92
660.952	5152.92
661.206	5027.92
661.46	4841.92
661.715	4912.92
661.969	5079.92
662.223	5045.92
662.478	4906.92
662.732	4947.92
662.986	4975.92
663.241	4945.92
663.495	4889.92
663.749	4914.92
664.003	5024.92
664.258	4959.92
664.512	4917.92
664.766	4957.92
665.02	5015.92
665.275	5050.92
665.529	4848.92
665.783	4866.92
666.037	5022.92
666.291	4998.92
666.546	4866.92
666.8	4947.92
667.054	4922.92
667.308	4979.92
667.562	4826.92
667.816	4880.92
668.071	4997.92
668.325	4923.92
668.579	4937.92
668.833	4993.92
669.087	5146.92
669.341	5015.92
669.595	4879.92
669.849	4942.92
670.103	5034.92
670.357	5041.92
670.612	5018.92
670.866	4975.92
671.12	5027.92
671.374	5051.92
671.628	5021.92
671.882	4973.92
672.136	5077.92
672.39	5094.92
672.644	4943.92
672.898	5087.92
673.152	5248.92
673.406	5175.92
673.66	5075.92
673.914	5133.92
674.168	5244.92
674.422	5123.92
674.675	4999.92
674.929	5127.92
675.183	5223.92
675.437	5178.92
675.691	5110.92
675.945	5164.92
676.199	5297.92
676.453	5138.92
676.707	5027.92
676.961	5106.92
677.214	5223.92
677.468	5255.92
677.722	5228.92
677.976	5201.92
678.23	5279.92
678.484	5284.92
678.737	5164.92
678.991	5216.92
679.245	5334.92
679.499	5291.92
679.753	5161.92
680.006	5250.92
680.26	5392.92
680.514	5394.92
680.768	5212.92
681.021	5284.92
681.275	5325.92
681.529	5287.92
681.783	5267.92
682.036	5333.92
682.29	5304.92
682.544	5367.92
682.797	5304.92
683.051	5350.92
683.305	5414.92
683.559	5408.92
683.812	5415.92
684.066	5449.92
684.32	5519.92
684.573	5464.92
684.827	5476.92
685.08	5503.92
685.334	5573.92
685.588	5447.92
685.841	5380.92
686.095	5575.92
686.348	5608.92
686.602	5561.92
686.856	5504.92
687.109	5427.92
687.363	5488.92
687.616	5519.92
687.87	5400.92
688.123	5448.92
688.377	5546.92
688.63	5615.92
688.884	5601.92
689.137	5669.92
689.391	5712.92
689.644	5568.92
689.898	5466.92
690.151	5510.92
690.405	5659.92
690.658	5576.92
690.912	5527.92
691.165	5531.92
691.419	5628.92
691.672	5719.92
691.926	5629.92
692.179	5574.92
692.432	5634.92
692.686	5623.92
692.939	5554.92
693.193	5644.92
693.446	5766.92
693.699	5735.92
693.953	5734.92
694.206	5695.92
694.459	5817.92
694.713	5795.92
694.966	5630.92
695.219	5664.92
695.473	5770.92
695.726	5642.92
695.979	5588.92
696.233	5684.92
696.486	5745.92
696.739	5762.92
696.992	5617.92
697.246	5717.92
697.499	5819.92
697.752	5642.92
698.006	5610.92
698.259	5731.92
698.512	5692.92
698.765	5641.92
699.018	5581.92
699.272	5674.92
699.525	5673.92
699.778	5610.92
700.031	5564.92
700.284	5585.92
700.538	5694.92
700.791	5713.92
701.044	5667.92
701.297	5663.92
701.55	5671.92
701.803	5581.92
702.056	5505.92
702.31	5595.92
702.563	5719.92
702.816	5652.92
703.069	5485.92
703.322	5560.92
703.575	5656.92
703.828	5666.92
704.081	5597.92
704.334	5571.92
704.587	5596.92
704.84	5552.92
705.093	5551.92
705.346	5710.92
705.599	5649.92
705.853	5679.92
706.106	5681.92
706.359	5918.92
706.612	5648.92
706.865	5615.92
707.118	5460.92
707.37	5525.92
707.623	5685.92
707.876	5610.92
708.129	5564.92
708.382	5624.92
708.635	5722.92
708.888	5532.92
709.141	5410.92
709.394	5512.92
709.647	5621.92
709.9	5540.92
710.153	5379.92
710.406	5504.92
710.658	5575.92
710.911	5541.92
711.164	5403.92
711.417	5410.92
711.67	5486.92
711.923	5500.92
712.176	5371.92
712.428	5354.92
712.681	5465.92
712.934	5509.92
713.187	5416.92
713.44	5364.92
713.692	5465.92
713.945	5357.92
714.198	5270.92
714.451	5239.92
714.704	5400.92
714.956	5473.92
715.209	5497.92
715.462	5428.92
715.715	5417.92
715.967	5378.92
716.22	5229.92
716.473	5285.92
716.725	5390.92
716.978	5338.92
717.231	5307.92
717.484	5342.92
717.736	5274.92
717.989	5191.92
718.242	5084.92
718.494	5156.92
718.747	5310.92
718.999	5266.92
719.252	5233.92
719.505	5230.92
719.757	5231.92
720.01	5137.92
720.263	5123.92
720.515	5160.92
720.768	5207.92
721.02	5123.92
721.273	4964.92
721.525	4985.92
721.778	5079.92
722.031	5168.92
722.283	5024.92
722.536	5007.92
722.788	5042.92
723.041	5019.92
723.293	4978.92
723.546	4914.92
723.798	4957.92
724.051	5012.92
724.303	4996.92
724.556	5005.92
724.808	5090.92
725.061	5052.92
725.313	4939.92
725.566	4932.92
725.818	4931.92
726.071	4901.92
726.323	4762.92
726.575	4819.92
726.828	4955.92
727.08	4934.92
727.333	4780.92
727.585	4768.92
727.837	4831.92
728.09	4847.92
728.342	4685.92
728.595	4794.92
728.847	4935.92
729.099	4674.92
729.352	4697.92
729.604	4693.92
729.856	4792.92
730.109	4777.92
730.361	4688.92
730.613	4761.92
730.866	4868.92
731.118	4682.92
731.37	4589.92
731.622	4564.92
731.875	4640.92
732.127	4698.92
732.379	4643.92
732.631	4738.92
732.884	4728.92
733.136	4631.92
733.388	4508.92
733.64	4533.92
733.893	4683.92
734.145	4600.92
734.397	4437.92
734.649	4488.92
734.901	4556.92
735.154	4426.92
735.406	4350.92
735.658	4435.92
735.91	4539.92
736.162	4492.92
736.414	4274.92
736.667	4400.92
736.919	4452.92
737.171	4349.92
737.423	4320.92
737.675	4338.92
737.927	4417.92
738.179	4379.92
738.431	4350.92
738.684	4292.92
738.936	4344.92
739.188	4385.92
739.44	4199.92
739.692	4204.92
739.944	4234.92
740.196	4207.92
740.448	4167.92
740.7	4203.92
740.952	4222.92
741.204	4201.92
741.456	4099.92
741.708	4164.92
741.96	4180.92
742.212	4196.92
742.464	4178.92
742.716	4069.92
742.968	4160.92
743.22	4116.92
743.472	4059.92
743.724	4151.92
743.976	4299.92
744.228	4253.92
744.48	3994.92
744.732	3981.92
744.983	4170.92
745.235	4149.92
745.487	4075.92
745.739	4097.92
745.991	4107.92
746.243	4133.92
746.495	3991.92
746.747	3998.92
746.999	4125.92
747.25	4091.92
747.502	4020.92
747.754	4100.92
748.006	4042.92
748.258	4131.92
748.51	4116.92
748.761	3967.92
749.013	4040.92
749.265	4161.92
749.517	4063.92
749.768	4084.92
750.02	4144.92
750.272	4103.92
750.524	3916.92
750.776	3868.92
751.027	4043.92
751.279	4086.92
751.531	3888.92
751.782	3961.92
752.034	4023.92
752.286	3893.92
752.538	3803.92
752.789	3887.92
753.041	3963.92
753.293	3913.92
753.544	3842.92
753.796	3864.92
754.048	3929.92
754.299	3900.92
754.551	3872.92
754.803	3787.92
755.054	3827.92
755.306	3897.92
755.558	3742.92
755.809	3749.92
756.061	3900.92
756.312	3801.92
756.564	3787.92
756.816	3775.92
757.067	3800.92
757.319	3770.92
757.57	3727.92
757.822	3806.92
758.073	3830.92
758.325	3775.92
758.577	3625.92
758.828	3645.92
759.08	3822.92
759.331	3808.92
759.583	3630.92
759.834	3747.92
760.086	3722.92
760.337	3689.92
760.589	3627.92
760.84	3631.92
761.092	3679.92
761.343	3626.92
761.595	3505.92
761.846	3625.92
762.097	3676.92
762.349	3627.92
762.6	3416.92
762.852	3562.92
763.103	3720.92
763.355	3565.92
763.606	3475.92
763.857	3610.92
764.109	3672.92
764.36	3568.92
764.612	3494.92
764.863	3604.92
765.114	3591.92
765.366	3461.92
765.617	3357.92
765.868	3393.92
766.12	3580.92
766.371	3584.92
766.622	3352.92
766.874	3453.92
767.125	3603.92
767.376	3427.92
767.628	3307.92
767.879	3399.92
768.13	3493.92
768.381	3467.92
768.633	3445.92
768.884	3444.92
769.135	3496.92
769.386	3475.92
769.638	3347.92
769.889	3361.92
770.14	3422.92
770.391	3347.92
770.643	3293.92
770.894	3270.92
771.145	3387.92
771.396	3298.92
771.647	3178.92
771.899	3310.92
772.15	3373.92
772.401	3305.92
772.652	3186.92
772.903	3240.92
773.154	3599.92
773.406	3784.92
773.657	3220.92
773.908	3199.92
774.159	3282.92
774.41	3309.92
774.661	3186.92
774.912	3218.92
775.163	3384.92
775.414	3338.92
775.666	3100.92
775.917	3117.92
776.168	3206.92
776.419	3187.92
776.67	3083.92
776.921	3108.92
777.172	3194.92
777.423	3197.92
777.674	3205.92
777.925	3184.92
778.176	3103.92
778.427	3101.92
778.678	3007.92
778.929	2987.92
779.18	3101.92
779.431	3012.92
779.682	3037.92
779.933	3091.92
780.184	3125.92
780.435	3092.92
780.686	3036.92
780.937	3061.92
781.188	3097.92
781.439	3215.92
781.69	3119.92
781.941	3032.92
782.191	3028.92
782.442	3010.92
782.693	2925.92
782.944	2924.92
783.195	3001.92
783.446	2975.92
783.697	2991.92
783.948	2908.92
784.199	2961.92
784.449	2909.92
784.7	2861.92
784.951	2896.92
785.202	3016.92
785.453	2993.92
785.704	2847.92
785.954	2814.92
786.205	2873.92
786.456	2834.92
786.707	2759.92
786.958	2795.92
787.208	2881.92
787.459	2795.92
787.71	2862.92
787.961	2832.92
788.211	2844.92
788.462	2845.92
788.713	2737.92
788.964	2764.92
789.214	2883.92
789.465	2872.92
789.716	2807.92
789.967	2827.92
790.217	2792.92
790.468	2770.92
790.719	2702.92
790.969	2738.92
791.22	2750.92
791.471	2845.92
791.721	2847.92
791.972	2734.92
792.223	2819.92
792.473	2742.92
792.724	2706.92
792.975	2686.92
793.225	2746.92
793.476	2712.92
793.726	2645.92
793.977	2728.92
794.228	2841.92
794.478	2755.92
794.729	2635.92
794.979	2712.92
795.23	2727.92
795.481	2648.92
795.731	2591.92
795.982	2684.92
796.232	2671.92
796.483	2617.92
796.733	2548.92
796.984	2602.92
797.234	2685.92
797.485	2691.92
797.735	2538.92
797.986	2553.92
798.236	2629.92
798.487	2563.92
798.737	2539.92
798.988	2666.92
799.238	2739.92
799.489	2607.92
799.739	2498.92
799.99	2546.92
800.24	2652.92
800.491	2705.92
800.741	2559.92
800.991	2476.92
801.242	2554.92
801.492	2569.92
801.743	2474.92
801.993	2699.92
802.244	2919.92
802.494	2564.92
802.744	2497.92
802.995	2503.92
803.245	2528.92
803.495	2465.92
803.746	2460.92
803.996	2552.92
804.246	2524.92
804.497	2529.92
804.747	2397.92
804.997	2468.92
805.248	2473.92
805.498	2444.92
805.748	2439.92
805.999	2330.92
806.249	2416.92
806.499	2410.92
806.75	2304.92
807	2334.92
807.25	2408.92
807.5	2332.92
807.751	2345.92
808.001	2391.92
808.251	2396.92
808.501	2512.92
808.752	2506.92
809.002	2423.92
809.252	2421.92
809.502	2343.92
809.752	2293.92
810.003	2276.92
810.253	2347.92
810.503	2379.92
810.753	2403.92
811.003	2418.92
811.254	2433.92
811.504	2354.92
811.754	2296.92
812.004	2324.92
812.254	2576.92
812.504	2396.92
812.754	2279.92
813.005	2336.92
813.255	2380.92
813.505	2329.92
813.755	2248.92
814.005	2310.92
814.255	2301.92
814.505	2277.92
814.755	2190.92
815.005	2210.92
815.255	2289.92
815.505	2241.92
815.756	2276.92
816.006	2242.92
816.256	2217.92
816.506	2161.92
816.756	2111.92
817.006	2148.92
817.256	2254.92
817.506	2266.92
817.756	2177.92
818.006	2170.92
818.256	2232.92
818.506	2216.92
818.756	2074.92
819.006	2112.92
819.256	2194.92
819.506	2151.92
819.756	2117.92
820.006	2196.92
820.255	2241.92
820.505	2262.92
820.755	2110.92
821.005	2130.92
821.255	2244.92
821.505	2188.92
821.755	2119.92
822.005	2203.92
822.255	2245.92
822.505	2154.92
822.755	2161.92
823.004	2057.92
823.254	2087.92
823.504	2143.92
823.754	2165.92
824.004	2101.92
824.254	2162.92
824.504	2172.92
824.753	2205.92
825.003	2172.92
825.253	2200.92
825.503	2075.92
825.753	2043.92
826.002	2116.92
826.252	2306.92
826.502	2091.92
826.752	2020.92
827.002	2044.92
827.251	2147.92
827.501	2060.92
827.751	1985.92
828.001	2021.92
828.25	2122.92
828.5	1980.92
828.75	1939.92
829	2031.92
829.249	2131.92
829.499	2006.92
829.749	2004.92
829.998	2068.92
830.248	2088.92
830.498	1971.92
830.748	1963.92
830.997	1997.92
831.247	2111.92
831.497	2101.92
831.746	1971.92
831.996	2078.92
832.246	2204.92
832.495	2193.92
832.745	1932.92
832.994	1932.92
833.244	2080.92
833.494	1965.92
833.743	1878.92
833.993	1950.92
834.243	2022.92
834.492	1980.92
834.742	1960.92
834.991	1953.92
835.241	2128.92
835.49	1935.92
835.74	1815.92
835.99	1950.92
836.239	2045.92
836.489	2034.92
836.738	1949.92
836.988	1840.92
837.237	1946.92
837.487	2028.92
837.736	1901.92
837.986	1875.92
838.235	1978.92
838.485	1964.92
838.734	1918.92
838.984	1939.92
839.233	1915.92
839.483	1836.92
839.732	1793.92
839.982	1871.92
840.231	1949.92
840.481	1900.92
840.73	1754.92
840.979	1843.92
841.229	1877.92
841.478	1873.92
841.728	1744.92
841.977	1715.92
842.227	1767.92
842.476	1711.92
842.725	1679.92
842.975	1761.92
843.224	1880.92
843.474	1923.92
843.723	1782.92
843.972	1781.92
844.222	1812.92
844.471	1849.92
844.72	1757.92
844.97	1732.92
845.219	1842.92
845.468	1867.92
845.718	1764.92
845.967	1787.92
846.216	1843.92
846.466	1895.92
846.715	1734.92
846.964	1737.92
847.214	1748.92
847.463	1697.92
847.712	1716.92
847.961	1703.92
848.211	1779.92
848.46	1757.92
848.709	1716.92
848.958	1691.92
849.208	1741.92
849.457	1703.92
849.706	1683.92
849.955	1669.92
850.205	1649.92
850.454	1787.92
850.703	1800.92
850.952	1753.92
851.201	1786.92
851.451	1743.92
851.7	1739.92
851.949	1629.92
852.198	1700.92
852.447	1655.92
852.696	1579.92
852.946	1678.92
853.195	1760.92
853.444	1733.92
853.693	1552.92
853.942	1548.92
854.191	1670.92
854.44	1696.92
854.689	1623.92
854.939	1554.92
855.188	1518.92
855.437	1594.92
855.686	1554.92
855.935	1574.92
856.184	1636.92
856.433	1673.92
856.682	1607.92
856.931	1592.92
857.18	1627.92
857.429	1547.92
857.678	1487.92
857.927	1523.92
858.176	1541.92
858.425	1503.92
858.674	1429.92
858.924	1481.92
859.173	1464.92
859.422	1512.92
859.671	1443.92
859.92	1485.92
860.169	1493.92
860.417	1561.92
860.666	1472.92
860.915	1423.92
861.164	1490.92
861.413	1432.92
861.662	1395.92
861.911	1441.92
862.16	1563.92
862.409	1528.92
862.658	1355.92
862.907	1378.92
863.156	1475.92
863.405	1477.92
863.654	1359.92
863.903	1335.92
864.151	1404.92
864.4	1433.92
864.649	1380.92
864.898	1468.92
865.147	1502.92
865.396	1520.92
865.645	1385.92
865.894	1418.92
866.142	1547.92
866.391	1440.92
866.64	1314.92
866.889	1428.92
867.138	1581.92
867.387	1463.92
867.635	1355.92
867.884	1397.92
868.133	1507.92
868.382	1416.92
868.631	1261.92
868.879	1276.92
869.128	1402.92
869.377	1369.92
869.626	1310.92
869.874	1303.92
870.123	1391.92
870.372	1353.92
870.621	1264.92
870.869	1303.92
871.118	1395.92
871.367	1366.92
871.616	1245.92
871.864	1345.92
872.113	1385.92
872.362	1339.92
872.61	1283.92
872.859	1328.92
873.108	1363.92
873.357	1266.92
873.605	1194.92
873.854	1212.92
874.103	1258.92
874.351	1264.92
874.6	1220.92
874.848	1283.92
875.097	1315.92
875.346	1324.92
875.594	1216.92
875.843	1298.92
876.092	1429.92
876.34	1310.92
876.589	1199.92
876.837	1128.92
877.086	1186.92
877.335	1237.92
877.583	1247.92
877.832	1288.92
878.08	1378.92
878.329	1269.92
878.578	1182.92
878.826	1205.92
879.075	1273.92
879.323	1277.92
879.572	1193.92
879.82	1311.92
880.069	1255.92
880.317	1281.92
880.566	1145.92
880.814	1226.92
881.063	1329.92
881.311	1240.92
881.56	1251.92
881.808	1164.92
882.057	1220.92
882.305	1199.92
882.554	1216.92
882.802	1131.92
883.051	1160.92
883.299	1156.92
883.548	1127.92
883.796	1226.92
884.045	1203.92
884.293	1150.92
884.541	1036.92
884.79	1027.92
885.038	1091.92
885.287	1100.92
885.535	1143.92
885.783	1154.92
886.032	1093.92
886.28	1031.92
886.529	1000.92
886.777	1075.92
887.025	1219.92
887.274	1103.92
887.522	1047.92
887.77	1079.92
888.019	1077.92
888.267	1035.92
888.516	936.92
888.764	982.92
889.012	1098.92
889.261	1090.92
889.509	1002.92
889.757	1018.92
890.005	1072.92
890.254	1000.92
890.502	990.92
890.75	1203.92
890.999	1208.92
891.247	1091.92
891.495	1048.92
891.743	1066.92
891.992	1184.92
892.24	1060.92
892.488	945.92
892.737	988.92
892.985	1048.92
893.233	1039.92
893.481	972.92
893.729	962.92
893.978	1134.92
894.226	1145.92
894.474	977.92
894.722	982.92
894.97	999.92
895.219	986.92
895.467	1003.92
895.715	1016.92
895.963	1000.92
896.211	971.92
896.46	857.92
896.708	967.92
896.956	1079.92
897.204	1130.92
897.452	1038.92
897.7	973.92
897.948	1014.92
898.197	955.92
898.445	912.92
898.693	940.92
898.941	1000.92
899.189	972.92
899.437	919.92
899.685	996.92
899.933	949.92
900.181	937.92
900.43	859.92
900.678	903.92
900.926	977.92
901.174	937.92
901.422	880.92
901.67	897.92
901.918	967.92
902.166	937.92
902.414	803.92
902.662	839.92
902.91	934.92
903.158	908.92
903.406	869.92
903.654	878.92
903.902	904.92
904.15	878.92
904.398	783.92
904.646	859.92
904.894	935.92
905.142	954.92
905.39	906.92
905.638	824.92
905.886	850.92
906.134	859.92
906.382	843.92
906.63	800.92
906.878	875.92
907.126	850.92
907.374	782.92
907.622	796.92
907.869	912.92
908.117	874.92
908.365	815.92
908.613	781.92
908.861	810.92
909.109	756.92
909.357	709.92
909.605	780.92
909.853	869.92
910.1	827.92
910.348	680.92
910.596	693.92
910.844	855.92
911.092	895.92
911.34	787.92
911.588	805.92
911.835	847.92
912.083	812.92
912.331	810.92
912.579	820.92
912.827	985.92
913.075	849.92
913.322	713.92
913.57	730.92
913.818	856.92
914.066	813.92
914.313	709.92
914.561	784.92
914.809	809.92
915.057	747.92
915.305	765.92
915.552	715.92
915.8	819.92
916.048	755.92
916.296	688.92
916.543	788.92
916.791	869.92
917.039	793.92
917.286	656.92
917.534	679.92
917.782	813.92
918.03	735.92
918.277	622.92
918.525	613.92
918.773	737.92
919.02	717.92
919.268	649.92
919.516	676.92
919.763	670.92
920.011	680.92
920.259	594.92
920.506	685.92
920.754	771.92
921.002	756.92
921.249	685.92
921.497	653.92
921.745	687.92
921.992	691.92
922.24	556.92
922.487	701.92
922.735	880.92
922.983	792.92
923.23	690.92
923.478	609.92
923.725	705.92
923.973	716.92
924.221	677.92
924.468	735.92
924.716	699.92
924.963	649.92
925.211	616.92
925.458	670.92
925.706	778.92
925.953	830.92
926.201	627.92
926.448	605.92
926.696	715.92
926.944	671.92
927.191	589.92
927.439	583.92
927.686	621.92
927.934	671.92
928.181	541.92
928.429	524.92
928.676	617.92
928.923	576.92
929.171	531.92
929.418	659.92
929.666	703.92
929.913	669.92
930.161	493.92
930.408	533.92
930.656	625.92
930.903	636.92
931.151	504.92
931.398	554.92
931.645	669.92
931.893	554.92
932.14	516.92
932.388	563.92
932.635	691.92
932.882	731.92
933.13	608.92
933.377	515.92
933.625	604.92
933.872	520.92
934.119	469.92
934.367	535.92
934.614	525.92
934.861	516.92
935.109	501.92
935.356	543.92
935.603	599.92
935.851	548.92
936.098	462.92
936.345	572.92
936.593	605.92
936.84	538.92
937.087	408.92
937.335	471.92
937.582	539.92
937.829	556.92
938.077	540.92
938.324	516.92
938.571	592.92
938.818	508.92
939.066	468.92
939.313	433.92
939.56	556.92
939.807	582.92
940.055	433.92
940.302	465.92
940.549	636.92
940.796	580.92
941.044	501.92
941.291	510.92
941.538	647.92
941.785	548.92
942.033	503.92
942.28	565.92
942.527	573.92
942.774	551.92
943.021	406.92
943.269	425.92
943.516	546.92
943.763	556.92
944.01	482.92
944.257	547.92
944.504	624.92
944.752	568.92
944.999	516.92
945.246	436.92
945.493	528.92
945.74	497.92
945.987	423.92
946.234	509.92
946.482	585.92
946.729	481.92
946.976	406.92
947.223	423.92
947.47	586.92
947.717	557.92
947.964	553.92
948.211	479.92
948.458	554.92
948.705	492.92
948.952	409.92
949.2	496.92
949.447	615.92
949.694	603.92
949.941	431.92
950.188	403.92
950.435	464.92
950.682	483.92
950.929	337.92
951.176	377.92
951.423	537.92
951.67	510.92
951.917	468.92
952.164	471.92
952.411	518.92
952.658	569.92
952.905	432.92
953.152	357.92
953.399	485.92
953.646	489.92
953.893	368.92
954.14	403.92
954.387	445.92
954.634	436.92
954.881	372.92
955.128	453.92
955.375	432.92
955.622	441.92
955.869	428.92
956.115	400.92
956.362	480.92
956.609	445.92
956.856	386.92
957.103	380.92
957.35	468.92
957.597	461.92
957.844	383.92
958.091	379.92
958.338	463.92
958.585	401.92
958.831	239.92
959.078	300.92
959.325	481.92
959.572	398.92
959.819	285.92
960.066	259.92
960.313	397.92
960.559	381.92
960.806	263.92
961.053	304.92
961.3	456.92
961.547	464.92
961.794	251.92
962.04	421.92
962.287	468.92
962.534	323.92
962.781	307.92
963.028	373.92
963.274	477.92
963.521	388.92
963.768	328.92
964.015	345.92
964.262	517.92
964.508	346.92
964.755	246.92
965.002	284.92
965.249	352.92
965.495	273.92
965.742	236.92
965.989	262.92
966.236	395.92
966.482	318.92
966.729	240.92
966.976	254.92
967.222	327.92
967.469	337.92
967.716	247.92
967.963	263.92
968.209	336.92
968.456	292.92
968.703	211.92
968.949	292.92
969.196	468.92
969.443	464.92
969.689	231.92
969.936	187.92
970.183	295.92
970.429	249.92
970.676	209.92
970.923	303.92
971.169	348.92
971.416	266.92
971.663	247.92
971.909	302.92
972.156	369.92
972.402	336.92
972.649	275.92
972.896	313.92
973.142	327.92
973.389	340.92
973.635	247.92
973.882	353.92
974.129	410.92
974.375	285.92
974.622	190.92
974.868	190.92
975.115	265.92
975.361	235.92
975.608	215.92
975.855	321.92
976.101	353.92
976.348	288.92
976.594	223.92
976.841	271.92
977.087	271.92
977.334	312.92
977.58	166.92
977.827	176.92
978.073	330.92
978.32	296.92
978.566	156.92
978.813	232.92
979.059	269.92
979.306	236.92
979.552	144.92
979.799	243.92
980.045	242.92
980.292	261.92
980.538	177.92
980.785	148.92
981.031	184.92
981.278	160.92
981.524	111.92
981.771	259.92
982.017	401.92
982.263	309.92
982.51	172.92
982.756	256.92
983.003	300.92
983.249	244.92
983.495	151.92
983.742	154.92
983.988	233.92
984.235	252.92
984.481	139.92
984.727	141.92
984.974	265.92
985.22	252.92
985.467	205.92
985.713	193.92
985.959	301.92
986.206	275.92
986.452	178.92
986.698	217.92
986.945	249.92
987.191	292.92
987.437	290.92
987.684	247.92
987.93	401.92
988.176	295.92
988.423	99.92
988.669	186.92
988.915	345.92
989.162	189.92
989.408	109.92
989.654	176.92
989.901	197.92
990.147	200.92
990.393	207.92
990.639	257.92
990.886	263.92
991.132	316.92
991.378	262.92
991.625	380.92
991.871	356.92
992.117	280.92
992.363	217.92
992.61	201.92
992.856	347.92
993.102	212.92
993.348	123.92
993.594	152.92
993.841	203.92
994.087	334.92
994.333	215.92
994.579	186.92
994.826	219.92
995.072	237.92
995.318	31.92
995.564	89.92
995.81	220.92
996.057	167.92
996.303	72.92
996.549	92.92
996.795	207.92
997.041	180.92
997.287	143.92
997.534	150.92
997.78	191.92
998.026	207.92
998.272	86.92
998.518	87.92
998.764	249.92
999.01	270.92
999.256	171.92
999.503	127.92
999.749	159.92
999.995	119.92
1000.241	79.92
1000.487	144.92
1000.733	199.92
1000.979	165.92
1001.225	141.92
1001.471	200.92
1001.718	240.92
1001.964	259.92
1002.21	92.92
1002.456	123.92
1002.702	274.92
1002.948	186.92
1003.194	128.92
1003.44	106.92
1003.686	176.92
1003.932	119.92
1004.178	81.92
1004.424	147.92
1004.67	283.92
1004.916	255.92
1005.162	151.92
1005.408	111.92
1005.654	252.92
1005.9	76.92
1006.146	30.92
1006.392	108.92
1006.638	184.92
1006.884	150.92
1007.13	72.92
1007.376	45.92
1007.622	231.92
1007.868	257.92
1008.114	110.92
1008.36	183.92
1008.606	211.92
1008.852	217.92
1009.098	158.92
1009.344	209.92
1009.59	178.92
1009.836	58.92
1010.082	-7.08
1010.328	87.92
1010.574	167.92
1010.82	62.92
1011.065	-8.08
1011.311	19.92
1011.557	135.92
1011.803	100.92
1012.049	46.92
1012.295	103.92
1012.541	128.92
1012.787	117.92
1013.033	-15.08
1013.278	-27.08
1013.524	136.92
1013.77	210.92
1014.016	99.92
1014.262	97.92
1014.508	195.92
1014.754	31.92
1015	18.92
1015.245	182.92
1015.491	207.92
1015.737	165.92
1015.983	18.92
1016.229	-21.08
1016.475	109.92
1016.72	235.92
1016.966	246.92
1017.212	137.92
1017.458	203.92
1017.704	111.92
1017.949	-8.08
1018.195	154.92
1018.441	254.92
1018.687	201.92
1018.933	42.92
1019.178	29.92
1019.424	215.92
1019.67	225.92
1019.916	27.92
1020.161	67.92
1020.407	139.92
1020.653	60.92
1020.899	-8.08
1021.144	91.92
1021.39	164.92
1021.636	49.92
1021.882	-33.08
1022.127	74.92
1022.373	230.92
1022.619	161.92
1022.865	53.92
1023.11	59.92
1023.356	178.92
1023.602	97.92
1023.847	45.92
1024.093	96.92
1024.339	61.92
1024.584	44.92
1024.83	28.92
1025.076	19.92
1025.321	151.92
1025.567	129.92
1025.813	4.92
1026.058	79.92
1026.304	146.92
1026.55	60.92
1026.795	38.92
1027.041	63.92
1027.287	120.92
1027.532	128.92
1027.778	88.92
1028.024	62.92
1028.269	95.92
1028.515	10.92
1028.76	-36.08
1029.006	29.92
1029.252	145.92
1029.497	82.92
1029.743	53.92
1029.989	-0.08
1030.234	130.92
1030.48	179.92
1030.725	-5.08
1030.971	44.92
1031.216	171.92
1031.462	82.92
1031.708	-39.08
1031.953	-13.08
1032.199	84.92
1032.444	79.92
1032.69	9.92
1032.935	22.92
1033.181	138.92
1033.426	24.92
1033.672	-115.08
1033.918	-51.08
1034.163	36.92
1034.409	35.92
1034.654	8.92
1034.9	117.92
1035.145	128.92
1035.391	54.92
1035.636	-63.08
1035.882	24.92
1036.127	16.92
1036.373	-17.08
1036.618	-111.08
1036.864	1.92
1037.109	147.92
1037.355	59.92
1037.6	-5.08
1037.845	14.92
1038.091	203.92
1038.336	168.92
1038.582	170.92
1038.827	238.92
1039.073	93.92
1039.318	1.92
1039.564	-110.08
1039.809	-27.08
1040.055	161.92
1040.3	160.92
1040.545	0.92
1040.791	-23.08
1041.036	44.92
1041.282	67.92
1041.527	133.92
1041.772	-56.08
1042.018	-0.08
1042.263	62.92
1042.509	-82.08
1042.754	-57.08
1042.999	50.92
1043.245	41.92
1043.49	-118.08
1043.736	-45.08
1043.981	34.92
1044.226	35.92
1044.472	11.92
1044.717	12.92
1044.962	129.92
1045.208	35.92
1045.453	-173.08
1045.698	-104.08
1045.944	99.92
1046.189	71.92
1046.434	-20.08
1046.68	1.92
1046.925	158.92
1047.17	13.92
1047.416	-142.08
1047.661	-50.08
1047.906	94.92
1048.152	75.92
1048.397	-10.08
1048.642	-32.08
1048.887	143.92
1049.133	151.92
1049.378	-29.08
1049.623	-60.08
1049.869	69.92
1050.114	10.92
1050.359	-65.08
1050.604	20.92
1050.85	180.92
1051.095	32.92
1051.34	-68.08
1051.585	3.92
1051.831	187.92
1052.076	30.92
1052.321	-174.08
1052.566	-68.08
1052.812	127.92
1053.057	36.92
1053.302	-53.08
1053.547	38.92
1053.792	114.92
1054.038	90.92
1054.283	-113.08
1054.528	-24.08
1054.773	49.92
1055.018	48.92
1055.264	-71.08
1055.509	-102.08
1055.754	31.92
1055.999	-44.08
1056.244	-126.08
1056.49	-38.08
1056.735	35.92
1056.98	-14.08
1057.225	-114.08
1057.47	84.92
1057.715	10.92
1057.96	-65.08
1058.206	-107.08
1058.451	-14.08
1058.696	107.92
1058.941	54.92
1059.186	-123.08
1059.431	-97.08
1059.676	108.92
1059.922	46.92
1060.167	134.92
1060.412	308.92
1060.657	95.92
1060.902	31.92
1061.147	-156.08
1061.392	-65.08
1061.637	73.92
1061.882	-3.08
1062.127	-150.08
1062.373	-138.08
1062.618	117.92
1062.863	149.92
1063.108	-40.08
1063.353	-102.08
1063.598	-4.08
1063.843	-34.08
1064.088	-112.08
1064.333	-100.08
1064.578	47.92
1064.823	70.92
1065.068	-167.08
1065.313	-92.08
1065.558	47.92
1065.803	44.92
1066.048	-138.08
1066.293	-114.08
1066.538	100.92
1066.783	19.92
1067.028	-151.08
1067.273	-126.08
1067.518	50.92
1067.763	-4.08
1068.008	-171.08
1068.253	-100.08
1068.498	71.92
1068.743	10.92
1068.988	-132.08
1069.233	-127.08
1069.478	74.92
1069.723	150.92
1069.968	-37.08
1070.213	-16.08
1070.458	95.92
1070.703	-7.08
1070.948	-170.08
1071.193	-61.08
1071.438	71.92
1071.683	91.92
1071.928	-32.08
1072.173	-54.08
1072.418	19.92
1072.663	-27.08
1072.908	-163.08
1073.152	-74.08
1073.397	93.92
1073.642	-23.08
1073.887	-50.08
1074.132	61.92
1074.377	41.92
1074.622	4.92
1074.867	-114.08
1075.112	-49.08
1075.357	129.92
1075.601	-12.08
1075.846	-62.08
1076.091	27.92
1076.336	66.92
1076.581	-56.08
1076.826	-148.08
1077.071	-68.08
1077.315	180.92
1077.56	106.92
1077.805	-113.08
1078.05	-66.08
1078.295	-6.08
1078.54	-29.08
1078.785	-166.08
1079.029	-109.08
1079.274	69.92
1079.519	-58.08
1079.764	-159.08
1080.009	-44.08
1080.253	36.92
1080.498	-56.08
1080.743	-207.08
1080.988	-66.08
1081.233	153.92
1081.478	79.92
1081.722	-118.08
1081.967	-4.08
1082.212	157.92
1082.457	40.92
1082.701	-101.08
1082.946	-69.08
1083.191	58.92
1083.436	-64.08
1083.681	-202.08
1083.925	-95.08
1084.17	-14.08
1084.415	11.92
1084.66	-177.08
1084.904	-68.08
1085.149	12.92
1085.394	-33.08
1085.639	-207.08
1085.883	-101.08
1086.128	141.92
1086.373	162.92
1086.617	-69.08
1086.862	-125.08
1087.107	1.92
1087.352	-63.08
1087.596	-146.08
1087.841	-15.08
1088.086	41.92
1088.33	9.92
1088.575	-222.08
1088.82	-97.08
1089.064	76.92
1089.309	-81.08
1089.554	-197.08
1089.798	-146.08
1090.043	44.92
1090.288	-18.08
1090.533	-191.08
1090.777	-110.08
1091.022	36.92
1091.266	63.92
1091.511	-108.08
1091.756	-43.08
1092	97.92
1092.245	68.92
1092.49	-161.08
1092.734	-108.08
1092.979	83.92
1093.224	-30.08
1093.468	-189.08
1093.713	-141.08
1093.957	13.92
1094.202	-36.08
1094.447	-201.08
1094.691	-68.08
1094.936	64.92
1095.181	5.92
1095.425	-172.08
1095.67	-142.08
1095.914	27.92
1096.159	11.92
1096.403	-143.08
1096.648	-40.08
1096.893	57.92
1097.137	-85.08
1097.382	-218.08
1097.626	-140.08
1097.871	11.92
1098.115	-40.08
1098.36	-207.08
1098.605	-119.08
1098.849	-48.08
1099.094	-107.08
1099.338	-187.08
1099.583	-93.08
1099.827	141.92
1100.072	33.92
1100.316	-161.08
1100.561	-95.08
1100.805	59.92
1101.05	23.92
1101.294	-177.08
1101.539	-154.08
1101.783	5.92
1102.028	-0.08
1102.273	-156.08
1102.517	-78.08
1102.761	67.92
1103.006	-63.08
1103.25	-278.08
1103.495	-173.08
1103.739	44.92
1103.984	101.92
1104.228	-93.08
1104.473	-28.08
1104.717	33.92
1104.962	0.92
1105.206	-126.08
1105.451	-145.08
1105.695	22.92
1105.94	-10.08
1106.184	-141.08
1106.429	-92.08
1106.673	4.92
1106.917	75.92
1107.162	-160.08
1107.406	-10.08
1107.651	140.92
1107.895	-77.08
1108.14	-177.08
1108.384	-91.08
1108.628	135.92
1108.873	109.92
1109.117	-139.08
1109.362	-134.08
1109.606	-29.08
1109.85	-22.08
1110.095	-153.08
1110.339	-98.08
1110.584	88.92
1110.828	19.92
1111.072	-87.08
1111.317	-108.08
1111.561	-25.08
1111.806	-48.08
1112.05	-175.08
1112.294	-84.08
1112.539	28.92
1112.783	-3.08
1113.027	-112.08
1113.272	-107.08
1113.516	-23.08
1113.76	-48.08
1114.005	-149.08
1114.249	-94.08
1114.493	65.92
1114.738	97.92
1114.982	-47.08
1115.226	-76.08
1115.471	3.92
1115.715	-20.08
1115.959	-191.08
1116.204	-165.08
1116.448	5.92
1116.692	-98.08
1116.937	-178.08
1117.181	-13.08
1117.425	-11.08
1117.67	-79.08
1117.914	-146.08
1118.158	-97.08
1118.402	122.92
1118.647	52.92
1118.891	-98.08
1119.135	-44.08
1119.38	98.92
1119.624	14.92
1119.868	-143.08
1120.112	-153.08
1120.357	-61.08
1120.601	-120.08
1120.845	-220.08
1121.089	-142.08
1121.334	36.92
