Data from HR4C21111__32__09-59-54-745.txt Node

Date: Mon Feb 22 09:59:54 IST 2021
User: Kapil
Spectrometer: HR4C2111
Trigger mode: 4
Integration Time (sec): 2.300000E0
Scans to average: 1
Electric dark correction enabled: true
Nonlinearity correction enabled: false
Boxcar width: 0
XAxis mode: Wavelengths
Number of Pixels in Spectrum: 3648
>>>>>Begin Spectral Data<<<<<
189.472	-456.92
189.745	-456.92
190.017	-456.92
190.289	-473.92
190.561	-297.92
190.834	-22.92
191.106	-101.92
191.378	20.08
191.65	5.08
191.923	-143.92
192.195	-100.92
192.467	137.08
192.739	110.08
193.011	-35.92
193.284	78.08
193.556	170.08
193.828	-28.92
194.1	-85.92
194.372	-125.92
194.644	33.08
194.916	53.08
195.188	-154.92
195.46	-81.92
195.732	31.08
196.004	-15.92
196.276	-96.92
196.548	-61.92
196.82	62.08
197.092	55.08
197.364	-136.92
197.636	-99.92
197.908	18.08
198.18	-56.92
198.452	-97.92
198.724	-61.92
198.996	53.08
199.268	67.08
199.54	-32.92
199.811	-117.92
200.083	87.08
200.355	17.08
200.627	-194.92
200.899	-79.92
201.171	54.08
201.442	-53.92
201.714	-181.92
201.986	-94.92
202.258	61.08
202.529	126.08
202.801	5.08
203.073	65.08
203.345	182.08
203.616	13.08
203.888	-135.92
204.16	-148.92
204.431	78.08
204.703	-1.92
204.974	-134.92
205.246	-6.92
205.518	164.08
205.789	-6.92
206.061	-129.92
206.332	-111.92
206.604	21.08
206.876	99.08
207.147	125.08
207.419	3.08
207.69	112.08
207.962	-32.92
208.233	-171.92
208.505	21.08
208.776	164.08
209.047	86.08
209.319	-129.92
209.59	-85.92
209.862	108.08
210.133	-39.92
210.404	-161.92
210.676	-111.92
210.947	73.08
211.219	65.08
211.49	-115.92
211.761	-37.92
212.033	35.08
212.304	-34.92
212.575	-176.92
212.846	-70.92
213.118	33.08
213.389	-60.92
213.66	-112.92
213.931	-39.92
214.203	21.08
214.474	-40.92
214.745	-117.92
215.016	148.08
215.287	434.08
215.559	55.08
215.83	-134.92
216.101	-73.92
216.372	-4.92
216.643	73.08
216.914	21.08
217.185	-75.92
217.456	150.08
217.727	17.08
217.998	-162.92
218.269	-58.92
218.54	25.08
218.811	-27.92
219.082	-122.92
219.353	-70.92
219.624	-15.92
219.895	-27.92
220.166	-133.92
220.437	-104.92
220.708	97.08
220.979	-2.92
221.25	-137.92
221.521	-94.92
221.792	30.08
222.063	77.08
222.334	52.08
222.604	202.08
222.875	165.08
223.146	100.08
223.417	-168.92
223.688	-29.92
223.958	123.08
224.229	-43.92
224.5	-190.92
224.771	-95.92
225.041	53.08
225.312	37.08
225.583	-109.92
225.854	-59.92
226.124	81.08
226.395	-12.92
226.666	-124.92
226.936	-105.92
227.207	63.08
227.478	-44.92
227.748	-101.92
228.019	41.08
228.289	244.08
228.56	-32.92
228.831	-54.92
229.101	49.08
229.372	78.08
229.642	-25.92
229.913	-160.92
230.183	-128.92
230.454	-10.92
230.724	-0.92
230.995	-104.92
231.265	-58.92
231.536	78.08
231.806	46.08
232.076	-111.92
232.347	-121.92
232.617	29.08
232.888	30.08
233.158	-64.92
233.428	-110.92
233.699	-4.92
233.969	-54.92
234.239	-170.92
234.51	-88.92
234.78	50.08
235.05	-4.92
235.321	-101.92
235.591	-66.92
235.861	57.08
236.131	-54.92
236.402	-190.92
236.672	-97.92
236.942	39.08
237.212	42.08
237.483	-64.92
237.753	13.08
238.023	183.08
238.293	15.08
238.563	-93.92
238.833	-118.92
239.103	56.08
239.374	-22.92
239.644	-148.92
239.914	-28.92
240.184	146.08
240.454	19.08
240.724	-168.92
240.994	-78.92
241.264	22.08
241.534	52.08
241.804	-25.92
242.074	-88.92
242.344	-30.92
242.614	-61.92
242.884	-178.92
243.154	-126.92
243.424	36.08
243.694	67.08
243.964	-88.92
244.234	-62.92
244.503	136.08
244.773	12.08
245.043	-223.92
245.313	-133.92
245.583	127.08
245.853	84.08
246.123	-177.92
246.392	-109.92
246.662	8.08
246.932	-17.92
247.202	-173.92
247.471	-60.92
247.741	243.08
248.011	84.08
248.281	-143.92
248.55	-91.92
248.82	62.08
249.09	-3.92
249.359	-96.92
249.629	-81.92
249.899	47.08
250.168	45.08
250.438	-41.92
250.708	-114.92
250.977	85.08
251.247	61.08
251.516	-107.92
251.786	-42.92
252.055	123.08
252.325	8.08
252.595	-98.92
252.864	-57.92
253.134	65.08
253.403	-21.92
253.673	-172.92
253.942	-110.92
254.212	48.08
254.481	-5.92
254.75	-141.92
255.02	-75.92
255.289	80.08
255.559	-7.92
255.828	-119.92
256.097	-35.92
256.367	18.08
256.636	-57.92
256.906	-133.92
257.175	-28.92
257.444	231.08
257.714	46.08
257.983	-71.92
258.252	-41.92
258.521	8.08
258.791	50.08
259.06	-110.92
259.329	-59.92
259.598	59.08
259.868	1.08
260.137	-119.92
260.406	-4.92
260.675	69.08
260.944	34.08
261.214	-118.92
261.483	-44.92
261.752	189.08
262.021	12.08
262.29	-177.92
262.559	-127.92
262.828	-0.92
263.097	-48.92
263.366	-194.92
263.635	-90.92
263.905	131.08
264.174	19.08
264.443	-201.92
264.712	-102.92
264.981	47.08
265.25	-44.92
265.519	-140.92
265.788	-143.92
266.057	29.08
266.325	56.08
266.594	-50.92
266.863	-112.92
267.132	22.08
267.401	2.08
267.67	-196.92
267.939	-146.92
268.208	22.08
268.477	78.08
268.745	-120.92
269.014	-100.92
269.283	132.08
269.552	45.08
269.821	-107.92
270.089	-2.92
270.358	-1.92
270.627	-8.92
270.896	-129.92
271.164	-154.92
271.433	22.08
271.702	84.08
271.971	-151.92
272.239	-135.92
272.508	27.08
272.777	-31.92
273.045	-18.92
273.314	-32.92
273.583	108.08
273.851	-5.92
274.12	-152.92
274.388	-124.92
274.657	-9.92
274.926	-1.92
275.194	-161.92
275.463	-62.92
275.731	21.08
276	186.08
276.268	398.08
276.537	-85.92
276.805	33.08
277.074	38.08
277.342	-147.92
277.611	-91.92
277.879	109.08
278.148	44.08
278.416	-145.92
278.684	-116.92
278.953	-10.92
279.221	-26.92
279.49	-192.92
279.758	-110.92
280.026	2.08
280.295	2.08
280.563	-120.92
280.831	895.08
281.1	2180.08
281.368	202.08
281.636	-91.92
281.904	-118.92
282.173	-11.92
282.441	-55.92
282.709	-95.92
282.977	35.08
283.246	61.08
283.514	-34.92
283.782	-69.92
284.05	23.08
284.318	77.08
284.587	-3.92
284.855	-93.92
285.123	-35.92
285.391	72.08
285.659	42.08
285.927	-152.92
286.195	-52.92
286.463	58.08
286.732	-13.92
287	-125.92
287.268	-54.92
287.536	40.08
287.804	-29.92
288.072	-137.92
288.34	-84.92
288.608	75.08
288.876	-32.92
289.144	-121.92
289.412	-0.92
289.68	65.08
289.948	-13.92
290.215	-124.92
290.483	-109.92
290.751	95.08
291.019	95.08
291.287	-172.92
291.555	-121.92
291.823	22.08
292.091	-16.92
292.358	-60.92
292.626	-15.92
292.894	91.08
293.162	57.08
293.43	-104.92
293.697	-82.92
293.965	52.08
294.233	-32.92
294.501	-168.92
294.768	-58.92
295.036	84.08
295.304	38.08
295.572	-126.92
295.839	-109.92
296.107	98.08
296.375	-0.92
296.642	-148.92
296.91	-121.92
297.178	52.08
297.445	169.08
297.713	91.08
297.98	-88.92
298.248	-47.92
298.516	-52.92
298.783	-113.92
299.051	-121.92
299.318	16.08
299.586	-11.92
299.853	-89.92
300.121	-84.92
300.388	52.08
300.656	-5.92
300.923	-145.92
301.191	-58.92
301.458	52.08
301.726	-4.92
301.993	-134.92
302.26	-87.92
302.528	42.08
302.795	-8.92
303.063	-69.92
303.33	-48.92
303.597	38.08
303.865	10.08
304.132	-135.92
304.399	-122.92
304.667	-23.92
304.934	6.08
305.201	-125.92
305.469	-20.92
305.736	66.08
306.003	41.08
306.27	-61.92
306.538	-95.92
306.805	-7.92
307.072	-25.92
307.339	-73.92
307.606	-59.92
307.874	143.08
308.141	62.08
308.408	-119.92
308.675	-108.92
308.942	-49.92
309.209	-70.92
309.477	-125.92
309.744	-107.92
310.011	20.08
310.278	36.08
310.545	-19.92
310.812	-55.92
311.079	141.08
311.346	205.08
311.613	62.08
311.88	-29.92
312.147	-70.92
312.414	-46.92
312.681	-116.92
312.948	-35.92
313.215	126.08
313.482	89.08
313.749	-108.92
314.016	-198.92
314.283	-38.92
314.55	59.08
314.817	-96.92
315.083	-130.92
315.35	-84.92
315.617	-138.92
315.884	-154.92
316.151	59.08
316.418	154.08
316.684	-42.92
316.951	-183.92
317.218	-109.92
317.485	4.08
317.752	-60.92
318.018	-122.92
318.285	4.08
318.552	33.08
318.819	-70.92
319.085	-126.92
319.352	-25.92
319.619	44.08
319.885	-38.92
320.152	-191.92
320.419	-114.92
320.685	38.08
320.952	-21.92
321.219	-61.92
321.485	78.08
321.752	24.08
322.019	-38.92
322.285	45.08
322.552	-20.92
322.818	120.08
323.085	-24.92
323.351	-130.92
323.618	-20.92
323.884	35.08
324.151	-63.92
324.417	-29.92
324.684	-75.92
324.95	-40.92
325.217	-135.92
325.483	-178.92
325.75	-34.92
326.016	21.08
326.283	-7.92
326.549	-180.92
326.815	-66.92
327.082	103.08
327.348	16.08
327.615	-90.92
327.881	-17.92
328.147	132.08
328.414	147.08
328.68	35.08
328.946	-33.92
329.212	33.08
329.479	13.08
329.745	-111.92
330.011	-102.92
330.278	24.08
330.544	-29.92
330.81	-21.92
331.076	-18.92
331.342	-28.92
331.609	-28.92
331.875	-75.92
332.141	-74.92
332.407	49.08
332.673	3.08
332.94	-11.92
333.206	-34.92
333.472	66.08
333.738	82.08
334.004	-110.92
334.27	-14.92
334.536	13.08
334.802	-43.92
335.068	-94.92
335.334	-0.92
335.6	37.08
335.866	-16.92
336.132	-148.92
336.398	-68.92
336.664	-17.92
336.93	-43.92
337.196	-79.92
337.462	-19.92
337.728	32.08
337.994	-19.92
338.26	-93.92
338.526	-27.92
338.792	-46.92
339.058	-41.92
339.324	-138.92
339.59	-11.92
339.856	61.08
340.121	-56.92
340.387	-107.92
340.653	94.08
340.919	152.08
341.185	60.08
341.45	-75.92
341.716	22.08
341.982	117.08
342.248	-40.92
342.514	-72.92
342.779	12.08
343.045	46.08
343.311	-6.92
343.576	-86.92
343.842	-35.92
344.108	140.08
344.374	40.08
344.639	-104.92
344.905	-80.92
345.171	85.08
345.436	-32.92
345.702	-78.92
345.967	79.08
346.233	109.08
346.499	31.08
346.764	-155.92
347.03	-45.92
347.295	-14.92
347.561	31.08
347.826	-20.92
348.092	-116.92
348.357	-10.92
348.623	-9.92
348.888	-98.92
349.154	-49.92
349.419	84.08
349.685	55.08
349.95	-40.92
350.216	-1.92
350.481	86.08
350.747	-7.92
351.012	-135.92
351.277	-58.92
351.543	62.08
351.808	3.08
352.074	-134.92
352.339	-87.92
352.604	83.08
352.87	44.08
353.135	-78.92
353.4	-9.92
353.666	39.08
353.931	35.08
354.196	-82.92
354.461	-77.92
354.727	75.08
354.992	63.08
355.257	-72.92
355.522	32.08
355.788	75.08
356.053	145.08
356.318	-10.92
356.583	-33.92
356.848	182.08
357.113	321.08
357.379	42.08
357.644	-9.92
357.909	197.08
358.174	227.08
358.439	-24.92
358.704	46.08
358.969	157.08
359.234	174.08
359.499	5.08
359.765	65.08
360.03	187.08
360.295	201.08
360.56	28.08
360.825	91.08
361.09	300.08
361.355	124.08
361.62	97.08
361.885	129.08
362.15	118.08
362.415	135.08
362.679	100.08
362.944	242.08
363.209	265.08
363.474	274.08
363.739	211.08
364.004	122.08
364.269	195.08
364.534	248.08
364.799	221.08
365.063	221.08
365.328	324.08
365.593	322.08
365.858	194.08
366.123	201.08
366.387	345.08
366.652	277.08
366.917	167.08
367.182	225.08
367.447	398.08
367.711	351.08
367.976	283.08
368.241	354.08
368.505	424.08
368.77	355.08
369.035	341.08
369.299	397.08
369.564	449.08
369.829	375.08
370.093	347.08
370.358	361.08
370.623	460.08
370.887	459.08
371.152	338.08
371.416	416.08
371.681	477.08
371.946	391.08
372.21	374.08
372.475	510.08
372.739	538.08
373.004	491.08
373.268	477.08
373.533	550.08
373.797	644.08
374.062	628.08
374.326	463.08
374.591	552.08
374.855	666.08
375.12	602.08
375.384	443.08
375.648	543.08
375.913	699.08
376.177	734.08
376.442	627.08
376.706	628.08
376.97	801.08
377.235	774.08
377.499	727.08
377.763	747.08
378.028	744.08
378.292	797.08
378.556	730.08
378.821	697.08
379.085	782.08
379.349	759.08
379.614	721.08
379.878	859.08
380.142	1042.08
380.406	948.08
380.671	950.08
380.935	1125.08
381.199	1211.08
381.463	1102.08
381.727	1061.08
381.991	1051.08
382.256	1131.08
382.52	1083.08
382.784	1113.08
383.048	1247.08
383.312	1189.08
383.576	1171.08
383.84	1094.08
384.104	1144.08
384.369	1263.08
384.633	1198.08
384.897	1141.08
385.161	1289.08
385.425	1425.08
385.689	1343.08
385.953	1302.08
386.217	1324.08
386.481	1458.08
386.745	1483.08
387.009	1460.08
387.273	1433.08
387.537	1490.08
387.801	1567.08
388.064	1512.08
388.328	1597.08
388.592	1666.08
388.856	1673.08
389.12	1632.08
389.384	1690.08
389.648	1745.08
389.912	1815.08
390.176	1852.08
390.439	1979.08
390.703	1836.08
390.967	1811.08
391.231	1748.08
391.495	1808.08
391.758	1917.08
392.022	1980.08
392.286	1857.08
392.55	1885.08
392.813	2005.08
393.077	2055.08
393.341	2015.08
393.605	2152.08
393.868	2108.08
394.132	2108.08
394.396	2071.08
394.659	2252.08
394.923	2200.08
395.187	2099.08
395.45	2149.08
395.714	2219.08
395.978	2269.08
396.241	2262.08
396.505	2236.08
396.768	2353.08
397.032	2422.08
397.295	2418.08
397.559	2361.08
397.823	2329.08
398.086	2496.08
398.35	2482.08
398.613	2412.08
398.877	2513.08
399.14	2654.08
399.404	2721.08
399.667	2628.08
399.931	2626.08
400.194	2697.08
400.457	2707.08
400.721	2718.08
400.984	2836.08
401.248	2814.08
401.511	2786.08
401.775	2649.08
402.038	2756.08
402.301	2963.08
402.565	2939.08
402.828	2789.08
403.091	2861.08
403.355	3031.08
403.618	3002.08
403.881	2986.08
404.145	3031.08
404.408	3071.08
404.671	3040.08
404.934	3154.08
405.198	3253.08
405.461	3266.08
405.724	3290.08
405.987	3247.08
406.251	3325.08
406.514	3437.08
406.777	3285.08
407.04	3208.08
407.303	3197.08
407.567	3321.08
407.83	3444.08
408.093	3341.08
408.356	3488.08
408.619	3594.08
408.882	3646.08
409.145	3518.08
409.408	3486.08
409.672	3614.08
409.935	3512.08
410.198	3430.08
410.461	3501.08
410.724	3769.08
410.987	3716.08
411.25	3506.08
411.513	3635.08
411.776	3682.08
412.039	3556.08
412.302	3573.08
412.565	3638.08
412.828	3683.08
413.091	3700.08
413.354	3594.08
413.617	3607.08
413.879	3691.08
414.142	3673.08
414.405	3473.08
414.668	3518.08
414.931	3642.08
415.194	3573.08
415.457	3486.08
415.72	3581.08
415.983	3658.08
416.245	3700.08
416.508	3595.08
416.771	3484.08
417.034	3646.08
417.297	3643.08
417.559	3560.08
417.822	3561.08
418.085	3674.08
418.348	3671.08
418.61	3557.08
418.873	3545.08
419.136	3575.08
419.399	3595.08
419.661	3628.08
419.924	3568.08
420.187	3691.08
420.449	3684.08
420.712	3621.08
420.975	3625.08
421.237	3709.08
421.5	3742.08
421.762	3762.08
422.025	3749.08
422.288	3867.08
422.55	3691.08
422.813	3601.08
423.075	3745.08
423.338	3848.08
423.601	3910.08
423.863	3885.08
424.126	3911.08
424.388	4005.08
424.651	3970.08
424.913	3942.08
425.176	3916.08
425.438	3990.08
425.701	4001.08
425.963	3902.08
426.225	3902.08
426.488	3961.08
426.75	3963.08
427.013	3974.08
427.275	4062.08
427.538	4042.08
427.8	4068.08
428.062	3977.08
428.325	4046.08
428.587	4104.08
428.849	4070.08
429.112	4171.08
429.374	4101.08
429.636	4132.08
429.899	4253.08
430.161	4146.08
430.423	4161.08
430.686	4346.08
430.948	4367.08
431.21	4167.08
431.472	4105.08
431.735	4279.08
431.997	4297.08
432.259	4239.08
432.521	4107.08
432.783	4285.08
433.046	4267.08
433.308	4147.08
433.57	4227.08
433.832	4491.08
434.094	4257.08
434.356	4168.08
434.618	4290.08
434.881	4330.08
435.143	4428.08
435.405	4407.08
435.667	4344.08
435.929	4374.08
436.191	4378.08
436.453	4304.08
436.715	4430.08
436.977	4564.08
437.239	4639.08
437.501	4542.08
437.763	4534.08
438.025	4630.08
438.287	4541.08
438.549	4519.08
438.811	4483.08
439.073	4486.08
439.335	4510.08
439.597	4450.08
439.859	4433.08
440.121	4573.08
440.383	4494.08
440.645	4474.08
440.907	4508.08
441.168	4521.08
441.43	4521.08
441.692	4546.08
441.954	4606.08
442.216	4651.08
442.478	4580.08
442.74	4458.08
443.001	4605.08
443.263	4755.08
443.525	4606.08
443.787	4490.08
444.048	4466.08
444.31	4532.08
444.572	4601.08
444.834	4562.08
445.095	4579.08
445.357	4719.08
445.619	4515.08
445.881	4421.08
446.142	4511.08
446.404	4539.08
446.666	4555.08
446.927	4530.08
447.189	4694.08
447.451	4749.08
447.712	4618.08
447.974	4447.08
448.235	4465.08
448.497	4523.08
448.759	4494.08
449.02	4554.08
449.282	4425.08
449.543	4565.08
449.805	4638.08
450.066	4385.08
450.328	4515.08
450.59	4776.08
450.851	4555.08
451.113	4354.08
451.374	4368.08
451.636	4646.08
451.897	4685.08
452.158	4551.08
452.42	4618.08
452.681	4682.08
452.943	4487.08
453.204	4517.08
453.466	4534.08
453.727	4481.08
453.988	4522.08
454.25	4442.08
454.511	4499.08
454.773	4571.08
455.034	4723.08
455.295	4477.08
455.557	4602.08
455.818	4646.08
456.079	4597.08
456.341	4696.08
456.602	4768.08
456.863	4815.08
457.124	4633.08
457.386	4505.08
457.647	4509.08
457.908	4588.08
458.169	4734.08
458.431	4559.08
458.692	4627.08
458.953	4683.08
459.214	4693.08
459.476	4826.08
459.737	4972.08
459.998	4959.08
460.259	4843.08
460.52	4793.08
460.781	4950.08
461.043	5080.08
461.304	4942.08
461.565	4772.08
461.826	4887.08
462.087	5024.08
462.348	5165.08
462.609	5120.08
462.87	5083.08
463.131	5014.08
463.392	5241.08
463.653	5281.08
463.914	5214.08
464.175	5176.08
464.436	5288.08
464.697	5353.08
464.958	5180.08
465.219	5216.08
465.48	5317.08
465.741	5327.08
466.002	5181.08
466.263	5430.08
466.524	5474.08
466.785	5362.08
467.046	5454.08
467.307	5616.08
467.568	5657.08
467.829	5631.08
468.089	5625.08
468.35	5669.08
468.611	5623.08
468.872	5546.08
469.133	5788.08
469.394	5972.08
469.655	6069.08
469.915	5949.08
470.176	5806.08
470.437	5837.08
470.698	6045.08
470.958	6045.08
471.219	6077.08
471.48	6261.08
471.741	6376.08
472.001	6340.08
472.262	6279.08
472.523	6557.08
472.784	6676.08
473.044	6559.08
473.305	6558.08
473.566	6563.08
473.826	6686.08
474.087	6678.08
474.348	6776.08
474.608	6949.08
474.869	6921.08
475.129	6798.08
475.39	6886.08
475.651	7077.08
475.911	7250.08
476.172	7074.08
476.432	7189.08
476.693	7482.08
476.953	7385.08
477.214	7432.08
477.475	7471.08
477.735	7501.08
477.996	7661.08
478.256	7522.08
478.517	7627.08
478.777	7718.08
479.038	7921.08
479.298	8007.08
479.558	7987.08
479.819	8146.08
480.079	8185.08
480.34	8215.08
480.6	8175.08
480.861	8297.08
481.121	8287.08
481.381	8330.08
481.642	8409.08
481.902	8447.08
482.162	8453.08
482.423	8454.08
482.683	8608.08
482.943	8792.08
483.204	8738.08
483.464	8652.08
483.724	8686.08
483.985	8804.08
484.245	8894.08
484.505	8867.08
484.765	9037.08
485.026	9103.08
485.286	9197.08
485.546	9147.08
485.806	9187.08
486.067	9202.08
486.327	9181.08
486.587	9211.08
486.847	9310.08
487.107	9401.08
487.368	9455.08
487.628	9432.08
487.888	9506.08
488.148	9622.08
488.408	9481.08
488.668	9578.08
488.928	9585.08
489.188	9611.08
489.449	9632.08
489.709	9587.08
489.969	9667.08
490.229	9790.08
490.489	9802.08
490.749	9737.08
491.009	9686.08
491.269	9758.08
491.529	9778.08
491.789	9765.08
492.049	9884.08
492.309	9993.08
492.569	9879.08
492.829	9901.08
493.089	9904.08
493.349	10054.08
493.609	9984.08
493.869	9876.08
494.129	9992.08
494.389	10052.08
494.648	9906.08
494.908	9875.08
495.168	10026.08
495.428	10141.08
495.688	10036.08
495.948	9898.08
496.208	9924.08
496.467	9982.08
496.727	10005.08
496.987	10049.08
497.247	10058.08
497.507	10126.08
497.767	10127.08
498.026	9942.08
498.286	10085.08
498.546	10242.08
498.806	10114.08
499.065	10177.08
499.325	10091.08
499.585	10140.08
499.845	10158.08
500.104	10130.08
500.364	10194.08
500.624	10158.08
500.883	10126.08
501.143	10193.08
501.403	10243.08
501.662	10324.08
501.922	10291.08
502.182	10083.08
502.441	10127.08
502.701	10169.08
502.96	10284.08
503.22	10223.08
503.48	10151.08
503.739	10238.08
503.999	10189.08
504.258	10113.08
504.518	10203.08
504.777	10258.08
505.037	10207.08
505.296	10101.08
505.556	10137.08
505.815	10334.08
506.075	10404.08
506.334	10277.08
506.594	10136.08
506.853	10255.08
507.113	10236.08
507.372	10028.08
507.632	10146.08
507.891	10232.08
508.151	10244.08
508.41	10144.08
508.669	10190.08
508.929	10256.08
509.188	10126.08
509.447	10101.08
509.707	10045.08
509.966	10125.08
510.226	10196.08
510.485	10220.08
510.744	10237.08
511.004	10270.08
511.263	10140.08
511.522	10107.08
511.781	10138.08
512.041	10259.08
512.3	10175.08
512.559	10199.08
512.818	10264.08
513.078	10275.08
513.337	10279.08
513.596	10138.08
513.855	10127.08
514.115	10311.08
514.374	10312.08
514.633	10174.08
514.892	10120.08
515.151	10286.08
515.41	10369.08
515.67	10282.08
515.929	10248.08
516.188	10384.08
516.447	10352.08
516.706	10237.08
516.965	10278.08
517.224	10343.08
517.483	10384.08
517.743	10282.08
518.002	10315.08
518.261	10384.08
518.52	10388.08
518.779	10269.08
519.038	10248.08
519.297	10315.08
519.556	10306.08
519.815	10261.08
520.074	10244.08
520.333	10406.08
520.592	10439.08
520.851	10286.08
521.11	10326.08
521.369	10408.08
521.628	10243.08
521.887	10232.08
522.145	10317.08
522.404	10354.08
522.663	10332.08
522.922	10233.08
523.181	10233.08
523.44	10359.08
523.699	10391.08
523.958	10228.08
524.217	10244.08
524.475	10275.08
524.734	10292.08
524.993	10275.08
525.252	10261.08
525.511	10288.08
525.769	10257.08
526.028	10231.08
526.287	10265.08
526.546	10352.08
526.805	10300.08
527.063	10201.08
527.322	10176.08
527.581	10279.08
527.839	10275.08
528.098	10238.08
528.357	10223.08
528.616	10286.08
528.874	10317.08
529.133	10247.08
529.392	10346.08
529.65	10321.08
529.909	10225.08
530.168	10104.08
530.426	10179.08
530.685	10315.08
530.943	10291.08
531.202	10186.08
531.461	10130.08
531.719	10317.08
531.978	10288.08
532.236	10180.08
532.495	10234.08
532.753	10332.08
533.012	10264.08
533.271	10180.08
533.529	10155.08
533.788	10274.08
534.046	10219.08
534.305	10135.08
534.563	10397.08
534.822	10490.08
535.08	10364.08
535.338	10231.08
535.597	10223.08
535.855	10327.08
536.114	10265.08
536.372	10210.08
536.631	10284.08
536.889	10365.08
537.147	10349.08
537.406	10124.08
537.664	10260.08
537.923	10388.08
538.181	10448.08
538.439	10292.08
538.698	10370.08
538.956	10384.08
539.214	10366.08
539.473	10369.08
539.731	10434.08
539.989	10578.08
540.248	10463.08
540.506	10473.08
540.764	10439.08
541.022	10450.08
541.281	10517.08
541.539	10514.08
541.797	10498.08
542.055	10597.08
542.314	10697.08
542.572	10662.08
542.83	10570.08
543.088	10659.08
543.346	10678.08
543.604	10627.08
543.863	10674.08
544.121	10821.08
544.379	10784.08
544.637	10661.08
544.895	10809.08
545.153	10976.08
545.411	10852.08
545.67	10742.08
545.928	10883.08
546.186	11017.08
546.444	11052.08
546.702	10978.08
546.96	11052.08
547.218	11124.08
547.476	11141.08
547.734	11054.08
547.992	11140.08
548.25	11312.08
548.508	11239.08
548.766	11229.08
549.024	11263.08
549.282	11354.08
549.54	11443.08
549.798	11367.08
550.056	11405.08
550.314	11516.08
550.572	11509.08
550.83	11443.08
551.088	11594.08
551.346	11713.08
551.603	11745.08
551.861	11636.08
552.119	11801.08
552.377	11867.08
552.635	11757.08
552.893	11661.08
553.151	11789.08
553.409	11909.08
553.666	11902.08
553.924	11918.08
554.182	11907.08
554.44	11980.08
554.698	12131.08
554.955	12053.08
555.213	12034.08
555.471	12174.08
555.729	12125.08
555.986	12008.08
556.244	12076.08
556.502	12302.08
556.76	12183.08
557.017	12227.08
557.275	12328.08
557.533	12495.08
557.79	12421.08
558.048	12330.08
558.306	12432.08
558.563	12459.08
558.821	12399.08
559.079	12403.08
559.336	12481.08
559.594	12474.08
559.852	12431.08
560.109	12405.08
560.367	12512.08
560.624	12610.08
560.882	12606.08
561.14	12564.08
561.397	12698.08
561.655	12657.08
561.912	12685.08
562.17	12582.08
562.427	12570.08
562.685	12732.08
562.942	12710.08
563.2	12602.08
563.457	12656.08
563.715	12755.08
563.972	12754.08
564.23	12572.08
564.487	12553.08
564.745	12641.08
565.002	12732.08
565.26	12704.08
565.517	12664.08
565.774	12697.08
566.032	12714.08
566.289	12612.08
566.547	12654.08
566.804	12731.08
567.061	12657.08
567.319	12610.08
567.576	12680.08
567.833	12799.08
568.091	12818.08
568.348	12673.08
568.605	12622.08
568.863	12694.08
569.12	12692.08
569.377	12610.08
569.635	12526.08
569.892	12567.08
570.149	12547.08
570.406	12412.08
570.664	12388.08
570.921	12534.08
571.178	12405.08
571.435	12377.08
571.693	12378.08
571.95	12352.08
572.207	12277.08
572.464	12168.08
572.721	12263.08
572.979	12356.08
573.236	12331.08
573.493	12202.08
573.75	12164.08
574.007	12273.08
574.264	12136.08
574.521	12063.08
574.779	12055.08
575.036	12023.08
575.293	11970.08
575.55	11870.08
575.807	11855.08
576.064	11893.08
576.321	11865.08
576.578	11753.08
576.835	11686.08
577.092	11823.08
577.349	11702.08
577.606	11427.08
577.863	11437.08
578.12	11575.08
578.377	11576.08
578.634	11285.08
578.891	11338.08
579.148	11370.08
579.405	11192.08
579.662	11078.08
579.919	11155.08
580.176	11113.08
580.433	11064.08
580.69	10997.08
580.947	10978.08
581.204	10959.08
581.461	10786.08
581.717	10620.08
581.974	10762.08
582.231	10845.08
582.488	10632.08
582.745	10329.08
583.002	10302.08
583.259	10510.08
583.515	10442.08
583.772	10245.08
584.029	10279.08
584.286	10295.08
584.543	10083.08
584.799	10016.08
585.056	10049.08
585.313	10126.08
585.57	10038.08
585.826	9852.08
586.083	9913.08
586.34	10066.08
586.597	9798.08
586.853	9626.08
587.11	9638.08
587.367	9693.08
587.623	9692.08
587.88	9564.08
588.137	9416.08
588.393	9537.08
588.65	9438.08
588.907	9295.08
589.163	9278.08
589.42	9248.08
589.677	9195.08
589.933	9135.08
590.19	9136.08
590.446	9203.08
590.703	9188.08
590.96	8897.08
591.216	8805.08
591.473	8961.08
591.729	8952.08
591.986	8869.08
592.242	8865.08
592.499	9047.08
592.755	8862.08
593.012	8667.08
593.268	8754.08
593.525	8701.08
593.781	8742.08
594.038	8675.08
594.294	8655.08
594.551	8634.08
594.807	8577.08
595.064	8547.08
595.32	8508.08
595.576	8555.08
595.833	8620.08
596.089	8489.08
596.346	8563.08
596.602	8610.08
596.858	8581.08
597.115	8452.08
597.371	8517.08
597.628	8499.08
597.884	8446.08
598.14	8351.08
598.397	8428.08
598.653	8550.08
598.909	8483.08
599.166	8387.08
599.422	8411.08
599.678	8423.08
599.934	8393.08
600.191	8246.08
600.447	8237.08
600.703	8328.08
600.959	8272.08
601.216	8058.08
601.472	8136.08
601.728	8235.08
601.984	8183.08
602.241	8141.08
602.497	8232.08
602.753	8343.08
603.009	8197.08
603.265	8140.08
603.521	8302.08
603.778	8380.08
604.034	8214.08
604.29	8160.08
604.546	8192.08
604.802	8242.08
605.058	8158.08
605.314	8129.08
605.571	8163.08
605.827	8140.08
606.083	8150.08
606.339	8117.08
606.595	8220.08
606.851	8291.08
607.107	8261.08
607.363	7994.08
607.619	8075.08
607.875	8290.08
608.131	8217.08
608.387	7949.08
608.643	8008.08
608.899	8105.08
609.155	8073.08
609.411	8079.08
609.667	8099.08
609.923	8030.08
610.179	7996.08
610.435	7842.08
610.691	7903.08
610.947	8000.08
611.203	7897.08
611.459	7876.08
611.714	7966.08
611.97	8091.08
612.226	8000.08
612.482	7801.08
612.738	7936.08
612.994	8124.08
613.25	7880.08
613.505	7743.08
613.761	7810.08
614.017	7914.08
614.273	7886.08
614.529	7768.08
614.785	7719.08
615.04	7785.08
615.296	7771.08
615.552	7697.08
615.808	7762.08
616.063	7875.08
616.319	7794.08
616.575	7651.08
616.831	7725.08
617.086	7841.08
617.342	7801.08
617.598	7669.08
617.854	7694.08
618.109	7749.08
618.365	7612.08
618.621	7481.08
618.876	7566.08
619.132	7645.08
619.388	7589.08
619.643	7394.08
619.899	7468.08
620.155	7552.08
620.41	7541.08
620.666	7380.08
620.921	7381.08
621.177	7481.08
621.433	7538.08
621.688	7401.08
621.944	7326.08
622.199	7385.08
622.455	7354.08
622.71	7203.08
622.966	7235.08
623.221	7263.08
623.477	7259.08
623.732	7268.08
623.988	7160.08
624.243	7299.08
624.499	7272.08
624.754	7029.08
625.01	7100.08
625.265	7220.08
625.521	7262.08
625.776	7095.08
626.032	7030.08
626.287	7045.08
626.543	7055.08
626.798	6948.08
627.053	6919.08
627.309	6964.08
627.564	6918.08
627.82	6901.08
628.075	6957.08
628.33	6911.08
628.586	6762.08
628.841	6647.08
629.096	6855.08
629.352	6914.08
629.607	6770.08
629.862	6665.08
630.118	6753.08
630.373	6781.08
630.628	6790.08
630.884	6664.08
631.139	6637.08
631.394	6759.08
631.649	6692.08
631.905	6566.08
632.16	6635.08
632.415	6722.08
632.67	6557.08
632.926	6402.08
633.181	6383.08
633.436	6548.08
633.691	6481.08
633.946	6276.08
634.202	6316.08
634.457	6415.08
634.712	6346.08
634.967	6254.08
635.222	6212.08
635.477	6338.08
635.733	6359.08
635.988	6234.08
636.243	6218.08
636.498	6305.08
636.753	6251.08
637.008	6066.08
637.263	6100.08
637.518	6182.08
637.773	6134.08
638.028	6083.08
638.283	6112.08
638.539	6191.08
638.794	6103.08
639.049	5902.08
639.304	5925.08
639.559	6008.08
639.814	5983.08
640.069	5890.08
640.324	5890.08
640.579	5956.08
640.834	5904.08
641.089	5795.08
641.344	5868.08
641.598	6072.08
641.853	5890.08
642.108	5703.08
642.363	5626.08
642.618	5815.08
642.873	5734.08
643.128	5591.08
643.383	5602.08
643.638	5664.08
643.893	5715.08
644.148	5625.08
644.402	5563.08
644.657	5674.08
644.912	5545.08
645.167	5510.08
645.422	5571.08
645.677	5575.08
645.931	5561.08
646.186	5542.08
646.441	5478.08
646.696	5424.08
646.951	5464.08
647.205	5401.08
647.46	5381.08
647.715	5393.08
647.97	5575.08
648.224	5653.08
648.479	5501.08
648.734	5580.08
648.989	5500.08
649.243	5379.08
649.498	5308.08
649.753	5303.08
650.007	5402.08
650.262	5348.08
650.517	5303.08
650.771	5335.08
651.026	5247.08
651.281	5134.08
651.535	5275.08
651.79	5302.08
652.045	5264.08
652.299	5164.08
652.554	5196.08
652.809	5223.08
653.063	5333.08
653.318	5222.08
653.572	5116.08
653.827	5226.08
654.081	5121.08
654.336	5034.08
654.591	4993.08
654.845	5103.08
655.1	5042.08
655.354	4974.08
655.609	5040.08
655.863	5174.08
656.118	5173.08
656.372	5014.08
656.627	5047.08
656.881	5118.08
657.136	5079.08
657.39	4954.08
657.645	5019.08
657.899	5174.08
658.153	5067.08
658.408	4953.08
658.662	5029.08
658.917	5043.08
659.171	4939.08
659.426	4846.08
659.68	4917.08
659.934	5024.08
660.189	5013.08
660.443	4899.08
660.697	5062.08
660.952	5123.08
661.206	4987.08
661.46	4862.08
661.715	4911.08
661.969	5002.08
662.223	4974.08
662.478	4881.08
662.732	4927.08
662.986	4958.08
663.241	4950.08
663.495	4903.08
663.749	4951.08
664.003	5064.08
664.258	4938.08
664.512	4884.08
664.766	4933.08
665.02	4994.08
665.275	5037.08
665.529	4899.08
665.783	4889.08
666.037	5015.08
666.291	5026.08
666.546	4893.08
666.8	4939.08
667.054	4911.08
667.308	5022.08
667.562	4826.08
667.816	4875.08
668.071	4982.08
668.325	4908.08
668.579	4942.08
668.833	5003.08
669.087	5130.08
669.341	4983.08
669.595	4878.08
669.849	4929.08
670.103	4997.08
670.357	4984.08
670.612	4975.08
670.866	4972.08
671.12	5054.08
671.374	5004.08
671.628	4930.08
671.882	4952.08
672.136	5056.08
672.39	5045.08
672.644	4896.08
672.898	5109.08
673.152	5254.08
673.406	5180.08
673.66	5073.08
673.914	5095.08
674.168	5131.08
674.422	5114.08
674.675	5019.08
674.929	5057.08
675.183	5201.08
675.437	5164.08
675.691	5087.08
675.945	5158.08
676.199	5303.08
676.453	5203.08
676.707	5071.08
676.961	5075.08
677.214	5192.08
677.468	5254.08
677.722	5217.08
677.976	5214.08
678.23	5277.08
678.484	5251.08
678.737	5150.08
678.991	5219.08
679.245	5308.08
679.499	5261.08
679.753	5181.08
680.006	5279.08
680.26	5391.08
680.514	5390.08
680.768	5247.08
681.021	5349.08
681.275	5356.08
681.529	5310.08
681.783	5257.08
682.036	5333.08
682.29	5306.08
682.544	5326.08
682.797	5273.08
683.051	5258.08
683.305	5352.08
683.559	5394.08
683.812	5442.08
684.066	5423.08
684.32	5507.08
684.573	5491.08
684.827	5508.08
685.08	5482.08
685.334	5559.08
685.588	5459.08
685.841	5378.08
686.095	5503.08
686.348	5519.08
686.602	5525.08
686.856	5498.08
687.109	5498.08
687.363	5554.08
687.616	5471.08
687.87	5380.08
688.123	5462.08
688.377	5574.08
688.63	5595.08
688.884	5533.08
689.137	5599.08
689.391	5660.08
689.644	5545.08
689.898	5448.08
690.151	5486.08
690.405	5623.08
690.658	5532.08
690.912	5484.08
691.165	5486.08
691.419	5623.08
691.672	5649.08
691.926	5543.08
692.179	5543.08
692.432	5634.08
692.686	5617.08
692.939	5458.08
693.193	5545.08
693.446	5705.08
693.699	5682.08
693.953	5687.08
694.206	5662.08
694.459	5746.08
694.713	5753.08
694.966	5612.08
695.219	5578.08
695.473	5689.08
695.726	5589.08
695.979	5526.08
696.233	5667.08
696.486	5730.08
696.739	5736.08
696.992	5600.08
697.246	5672.08
697.499	5768.08
697.752	5582.08
698.006	5593.08
698.259	5729.08
698.512	5673.08
698.765	5623.08
699.018	5577.08
699.272	5608.08
699.525	5607.08
699.778	5566.08
700.031	5554.08
700.284	5548.08
700.538	5692.08
700.791	5669.08
701.044	5575.08
701.297	5617.08
701.55	5644.08
701.803	5613.08
702.056	5484.08
702.31	5575.08
702.563	5721.08
702.816	5590.08
703.069	5409.08
703.322	5501.08
703.575	5650.08
703.828	5669.08
704.081	5539.08
704.334	5545.08
704.587	5633.08
704.84	5593.08
705.093	5550.08
705.346	5654.08
705.599	5631.08
705.853	5636.08
706.106	5714.08
706.359	5936.08
706.612	5599.08
706.865	5605.08
707.118	5490.08
707.37	5539.08
707.623	5691.08
707.876	5594.08
708.129	5514.08
708.382	5614.08
708.635	5725.08
708.888	5560.08
709.141	5430.08
709.394	5523.08
709.647	5587.08
709.9	5461.08
710.153	5356.08
710.406	5503.08
710.658	5581.08
710.911	5546.08
711.164	5383.08
711.417	5375.08
711.67	5435.08
711.923	5486.08
712.176	5361.08
712.428	5379.08
712.681	5462.08
712.934	5485.08
713.187	5428.08
713.44	5338.08
713.692	5415.08
713.945	5373.08
714.198	5310.08
714.451	5250.08
714.704	5403.08
714.956	5425.08
715.209	5481.08
715.462	5396.08
715.715	5381.08
715.967	5377.08
716.22	5209.08
716.473	5230.08
716.725	5410.08
716.978	5355.08
717.231	5308.08
717.484	5307.08
717.736	5206.08
717.989	5182.08
718.242	5110.08
718.494	5203.08
718.747	5334.08
718.999	5245.08
719.252	5215.08
719.505	5232.08
719.757	5196.08
720.01	5124.08
720.263	5069.08
720.515	5084.08
720.768	5179.08
721.02	5174.08
721.273	5036.08
721.525	4991.08
721.778	5069.08
722.031	5166.08
722.283	4994.08
722.536	4993.08
722.788	5082.08
723.041	5035.08
723.293	4934.08
723.546	4931.08
723.798	5044.08
724.051	5061.08
724.303	4951.08
724.556	4971.08
724.808	5044.08
725.061	5010.08
725.313	4931.08
725.566	4866.08
725.818	4896.08
726.071	4897.08
726.323	4715.08
726.575	4790.08
726.828	4940.08
727.08	4992.08
727.333	4823.08
727.585	4800.08
727.837	4902.08
728.09	4830.08
728.342	4654.08
728.595	4770.08
728.847	4922.08
729.099	4703.08
729.352	4701.08
729.604	4718.08
729.856	4773.08
730.109	4700.08
730.361	4588.08
730.613	4715.08
730.866	4869.08
731.118	4655.08
731.37	4518.08
731.622	4575.08
731.875	4635.08
732.127	4673.08
732.379	4658.08
732.631	4700.08
732.884	4679.08
733.136	4626.08
733.388	4523.08
733.64	4544.08
733.893	4693.08
734.145	4565.08
734.397	4430.08
734.649	4405.08
734.901	4542.08
735.154	4438.08
735.406	4366.08
735.658	4424.08
735.91	4557.08
736.162	4514.08
736.414	4324.08
736.667	4387.08
736.919	4461.08
737.171	4339.08
737.423	4334.08
737.675	4381.08
737.927	4419.08
738.179	4359.08
738.431	4316.08
738.684	4271.08
738.936	4321.08
739.188	4377.08
739.44	4147.08
739.692	4177.08
739.944	4225.08
740.196	4235.08
740.448	4168.08
740.7	4183.08
740.952	4219.08
741.204	4225.08
741.456	4114.08
741.708	4137.08
741.96	4141.08
742.212	4234.08
742.464	4225.08
742.716	4102.08
742.968	4133.08
743.22	4051.08
743.472	3976.08
743.724	4090.08
743.976	4236.08
744.228	4209.08
744.48	3946.08
744.732	3988.08
744.983	4119.08
745.235	4110.08
745.487	4033.08
745.739	4059.08
745.991	4079.08
746.243	4139.08
746.495	3948.08
746.747	3962.08
746.999	4074.08
747.25	4073.08
747.502	4013.08
747.754	4060.08
748.006	4009.08
748.258	4113.08
748.51	4127.08
748.761	3961.08
749.013	4007.08
749.265	4041.08
749.517	4027.08
749.768	4093.08
750.02	4158.08
750.272	4062.08
750.524	3856.08
750.776	3847.08
751.027	4037.08
751.279	4049.08
751.531	3842.08
751.782	3958.08
752.034	4029.08
752.286	3911.08
752.538	3796.08
752.789	3890.08
753.041	3977.08
753.293	3912.08
753.544	3826.08
753.796	3885.08
754.048	3939.08
754.299	3910.08
754.551	3844.08
754.803	3769.08
755.054	3834.08
755.306	3892.08
755.558	3763.08
755.809	3779.08
756.061	3912.08
756.312	3773.08
756.564	3756.08
756.816	3798.08
757.067	3745.08
757.319	3707.08
757.57	3677.08
757.822	3742.08
758.073	3810.08
758.325	3788.08
758.577	3649.08
758.828	3676.08
759.08	3862.08
759.331	3798.08
759.583	3615.08
759.834	3729.08
760.086	3667.08
760.337	3677.08
760.589	3639.08
760.84	3581.08
761.092	3655.08
761.343	3609.08
761.595	3490.08
761.846	3632.08
762.097	3647.08
762.349	3617.08
762.6	3441.08
762.852	3574.08
763.103	3683.08
763.355	3539.08
763.606	3498.08
763.857	3609.08
764.109	3690.08
764.36	3585.08
764.612	3513.08
764.863	3620.08
765.114	3584.08
765.366	3473.08
765.617	3395.08
765.868	3422.08
766.12	3590.08
766.371	3586.08
766.622	3363.08
766.874	3424.08
767.125	3559.08
767.376	3463.08
767.628	3360.08
767.879	3407.08
768.13	3488.08
768.381	3492.08
768.633	3453.08
768.884	3411.08
769.135	3474.08
769.386	3445.08
769.638	3395.08
769.889	3421.08
770.14	3409.08
770.391	3311.08
770.643	3289.08
770.894	3259.08
771.145	3373.08
771.396	3301.08
771.647	3205.08
771.899	3320.08
772.15	3424.08
772.401	3365.08
772.652	3194.08
772.903	3243.08
773.154	3578.08
773.406	3799.08
773.657	3259.08
773.908	3253.08
774.159	3307.08
774.41	3304.08
774.661	3170.08
774.912	3222.08
775.163	3403.08
775.414	3359.08
775.666	3087.08
775.917	3073.08
776.168	3112.08
776.419	3119.08
776.67	3065.08
776.921	3090.08
777.172	3168.08
777.423	3167.08
777.674	3153.08
777.925	3153.08
778.176	3074.08
778.427	3101.08
778.678	2978.08
778.929	2996.08
779.18	3119.08
779.431	3062.08
779.682	3060.08
779.933	3075.08
780.184	3063.08
780.435	3045.08
780.686	3035.08
780.937	3066.08
781.188	3117.08
781.439	3176.08
781.69	3058.08
781.941	3005.08
782.191	3047.08
782.442	3041.08
782.693	2900.08
782.944	2866.08
783.195	2962.08
783.446	2982.08
783.697	3003.08
783.948	2922.08
784.199	2928.08
784.449	2904.08
784.7	2897.08
784.951	2923.08
785.202	3073.08
785.453	3017.08
785.704	2834.08
785.954	2834.08
786.205	2876.08
786.456	2849.08
786.707	2765.08
786.958	2792.08
787.208	2904.08
787.459	2829.08
787.71	2845.08
787.961	2822.08
788.211	2879.08
788.462	2838.08
788.713	2760.08
788.964	2764.08
789.214	2863.08
789.465	2910.08
789.716	2823.08
789.967	2808.08
790.217	2811.08
790.468	2755.08
790.719	2698.08
790.969	2730.08
791.22	2798.08
791.471	2845.08
791.721	2847.08
791.972	2758.08
792.223	2825.08
792.473	2724.08
792.724	2678.08
792.975	2634.08
793.225	2729.08
793.476	2714.08
793.726	2648.08
793.977	2717.08
794.228	2841.08
794.478	2709.08
794.729	2637.08
794.979	2726.08
795.23	2723.08
795.481	2658.08
795.731	2580.08
795.982	2676.08
796.232	2659.08
796.483	2571.08
796.733	2512.08
796.984	2564.08
797.234	2649.08
797.485	2645.08
797.735	2488.08
797.986	2537.08
798.236	2614.08
798.487	2552.08
798.737	2539.08
798.988	2653.08
799.238	2712.08
799.489	2580.08
799.739	2463.08
799.99	2565.08
800.24	2635.08
800.491	2686.08
800.741	2525.08
800.991	2431.08
801.242	2518.08
801.492	2537.08
801.743	2497.08
801.993	2741.08
802.244	2904.08
802.494	2530.08
802.744	2474.08
802.995	2478.08
803.245	2499.08
803.495	2483.08
803.746	2417.08
803.996	2500.08
804.246	2489.08
804.497	2529.08
804.747	2392.08
804.997	2469.08
805.248	2454.08
805.498	2414.08
805.748	2449.08
805.999	2357.08
806.249	2410.08
806.499	2395.08
806.75	2312.08
807	2350.08
807.25	2430.08
807.5	2346.08
807.751	2351.08
808.001	2401.08
808.251	2439.08
808.501	2518.08
808.752	2454.08
809.002	2394.08
809.252	2374.08
809.502	2354.08
809.752	2307.08
810.003	2257.08
810.253	2311.08
810.503	2342.08
810.753	2404.08
811.003	2398.08
811.254	2396.08
811.504	2320.08
811.754	2315.08
812.004	2308.08
812.254	2541.08
812.504	2401.08
812.754	2268.08
813.005	2317.08
813.255	2391.08
813.505	2307.08
813.755	2192.08
814.005	2284.08
814.255	2316.08
814.505	2272.08
814.755	2137.08
815.005	2177.08
815.255	2316.08
815.505	2281.08
815.756	2270.08
816.006	2255.08
816.256	2211.08
816.506	2178.08
816.756	2087.08
817.006	2137.08
817.256	2222.08
817.506	2218.08
817.756	2157.08
818.006	2191.08
818.256	2227.08
818.506	2200.08
818.756	2081.08
819.006	2140.08
819.256	2237.08
819.506	2162.08
819.756	2093.08
820.006	2173.08
820.255	2241.08
820.505	2198.08
820.755	2067.08
821.005	2102.08
821.255	2212.08
821.505	2182.08
821.755	2113.08
822.005	2169.08
822.255	2226.08
822.505	2148.08
822.755	2155.08
823.004	2013.08
823.254	2065.08
823.504	2117.08
823.754	2114.08
824.004	2053.08
824.254	2167.08
824.504	2155.08
824.753	2196.08
825.003	2200.08
825.253	2245.08
825.503	2098.08
825.753	2030.08
826.002	2123.08
826.252	2283.08
826.502	2096.08
826.752	2026.08
827.002	2014.08
827.251	2081.08
827.501	2055.08
827.751	1989.08
828.001	2042.08
828.25	2126.08
828.5	1972.08
828.75	1927.08
829	2024.08
829.249	2139.08
829.499	1978.08
829.749	1964.08
829.998	2081.08
830.248	2099.08
830.498	1957.08
830.748	1973.08
830.997	2015.08
831.247	2077.08
831.497	2065.08
831.746	1981.08
831.996	2082.08
832.246	2172.08
832.495	2162.08
832.745	1913.08
832.994	1934.08
833.244	2061.08
833.494	1962.08
833.743	1891.08
833.993	1926.08
834.243	1979.08
834.492	1971.08
834.742	1953.08
834.991	1946.08
835.241	2110.08
835.49	1931.08
835.74	1823.08
835.99	1922.08
836.239	2016.08
836.489	2027.08
836.738	1914.08
836.988	1793.08
837.237	1918.08
837.487	2041.08
837.736	1900.08
837.986	1874.08
838.235	1963.08
838.485	1907.08
838.734	1879.08
838.984	1947.08
839.233	1889.08
839.483	1779.08
839.732	1769.08
839.982	1852.08
840.231	1912.08
840.481	1915.08
840.73	1773.08
840.979	1851.08
841.229	1858.08
841.478	1836.08
841.728	1731.08
841.977	1720.08
842.227	1780.08
842.476	1766.08
842.725	1738.08
842.975	1756.08
843.224	1861.08
843.474	1906.08
843.723	1799.08
843.972	1783.08
844.222	1831.08
844.471	1890.08
844.72	1741.08
844.97	1734.08
845.219	1831.08
845.468	1826.08
845.718	1758.08
845.967	1751.08
846.216	1811.08
846.466	1854.08
846.715	1713.08
846.964	1735.08
847.214	1749.08
847.463	1703.08
847.712	1708.08
847.961	1674.08
848.211	1745.08
848.46	1743.08
848.709	1693.08
848.958	1647.08
849.208	1727.08
849.457	1702.08
849.706	1713.08
849.955	1659.08
850.205	1658.08
850.454	1791.08
850.703	1796.08
850.952	1729.08
851.201	1752.08
851.451	1699.08
851.7	1688.08
851.949	1574.08
852.198	1668.08
852.447	1635.08
852.696	1563.08
852.946	1601.08
853.195	1710.08
853.444	1717.08
853.693	1546.08
853.942	1544.08
854.191	1638.08
854.44	1679.08
854.689	1607.08
854.939	1553.08
855.188	1525.08
855.437	1548.08
855.686	1529.08
855.935	1559.08
856.184	1630.08
856.433	1687.08
856.682	1596.08
856.931	1580.08
857.18	1607.08
857.429	1518.08
857.678	1478.08
857.927	1548.08
858.176	1573.08
858.425	1492.08
858.674	1405.08
858.924	1496.08
859.173	1511.08
859.422	1519.08
859.671	1413.08
859.92	1471.08
860.169	1496.08
860.417	1556.08
860.666	1462.08
860.915	1403.08
861.164	1474.08
861.413	1415.08
861.662	1329.08
861.911	1402.08
862.16	1543.08
862.409	1482.08
862.658	1338.08
862.907	1398.08
863.156	1502.08
863.405	1473.08
863.654	1363.08
863.903	1354.08
864.151	1451.08
864.4	1461.08
864.649	1399.08
864.898	1454.08
865.147	1487.08
865.396	1490.08
865.645	1339.08
865.894	1409.08
866.142	1527.08
866.391	1425.08
866.64	1325.08
866.889	1402.08
867.138	1561.08
867.387	1424.08
867.635	1305.08
867.884	1368.08
868.133	1476.08
868.382	1400.08
868.631	1261.08
868.879	1286.08
869.128	1399.08
869.377	1394.08
869.626	1326.08
869.874	1319.08
870.123	1407.08
870.372	1367.08
870.621	1243.08
870.869	1277.08
871.118	1382.08
871.367	1357.08
871.616	1244.08
871.864	1334.08
872.113	1368.08
872.362	1349.08
872.61	1263.08
872.859	1332.08
873.108	1409.08
873.357	1303.08
873.605	1205.08
873.854	1203.08
874.103	1265.08
874.351	1253.08
874.6	1206.08
874.848	1250.08
875.097	1311.08
875.346	1294.08
875.594	1161.08
875.843	1295.08
876.092	1441.08
876.34	1313.08
876.589	1194.08
876.837	1102.08
877.086	1185.08
877.335	1252.08
877.583	1198.08
877.832	1260.08
878.08	1379.08
878.329	1275.08
878.578	1186.08
878.826	1192.08
879.075	1274.08
879.323	1283.08
879.572	1177.08
879.82	1327.08
880.069	1284.08
880.317	1242.08
880.566	1135.08
880.814	1229.08
881.063	1350.08
881.311	1261.08
881.56	1263.08
881.808	1161.08
882.057	1219.08
882.305	1191.08
882.554	1246.08
882.802	1143.08
883.051	1170.08
883.299	1170.08
883.548	1137.08
883.796	1223.08
884.045	1223.08
884.293	1128.08
884.541	1017.08
884.79	989.08
885.038	1092.08
885.287	1099.08
885.535	1116.08
885.783	1144.08
886.032	1087.08
886.28	1050.08
886.529	998.08
886.777	1070.08
887.025	1201.08
887.274	1062.08
887.522	1025.08
887.77	1077.08
888.019	1099.08
888.267	1038.08
888.516	955.08
888.764	988.08
889.012	1073.08
889.261	1067.08
889.509	984.08
889.757	1000.08
890.005	1035.08
890.254	993.08
890.502	1009.08
890.75	1202.08
890.999	1204.08
891.247	1099.08
891.495	1053.08
891.743	1017.08
891.992	1160.08
892.24	1053.08
892.488	953.08
892.737	971.08
892.985	1037.08
893.233	1023.08
893.481	986.08
893.729	966.08
893.978	1121.08
894.226	1145.08
894.474	977.08
894.722	978.08
894.97	1017.08
895.219	980.08
895.467	1004.08
895.715	1027.08
895.963	988.08
896.211	926.08
896.46	870.08
896.708	970.08
896.956	1071.08
897.204	1144.08
897.452	1019.08
897.7	935.08
897.948	1019.08
898.197	944.08
898.445	885.08
898.693	905.08
898.941	990.08
899.189	981.08
899.437	929.08
899.685	1011.08
899.933	953.08
900.181	943.08
900.43	872.08
900.678	910.08
900.926	958.08
901.174	913.08
901.422	885.08
901.67	888.08
901.918	970.08
902.166	930.08
902.414	767.08
902.662	808.08
902.91	939.08
903.158	913.08
903.406	843.08
903.654	838.08
903.902	898.08
904.15	882.08
904.398	772.08
904.646	837.08
904.894	939.08
905.142	926.08
905.39	876.08
905.638	806.08
905.886	837.08
906.134	830.08
906.382	829.08
906.63	783.08
906.878	876.08
907.126	869.08
907.374	776.08
907.622	782.08
907.869	903.08
908.117	892.08
908.365	810.08
908.613	794.08
908.861	791.08
909.109	750.08
909.357	724.08
909.605	777.08
909.853	867.08
910.1	790.08
910.348	635.08
910.596	708.08
910.844	896.08
911.092	896.08
911.34	752.08
911.588	773.08
911.835	834.08
912.083	791.08
912.331	801.08
912.579	818.08
912.827	996.08
913.075	879.08
913.322	709.08
913.57	725.08
913.818	831.08
914.066	786.08
914.313	734.08
914.561	807.08
914.809	801.08
915.057	740.08
915.305	714.08
915.552	698.08
915.8	803.08
916.048	715.08
916.296	661.08
916.543	787.08
916.791	870.08
917.039	786.08
917.286	659.08
917.534	679.08
917.782	784.08
918.03	704.08
918.277	578.08
918.525	590.08
918.773	727.08
919.02	709.08
919.268	649.08
919.516	660.08
919.763	657.08
920.011	703.08
920.259	601.08
920.506	687.08
920.754	770.08
921.002	745.08
921.249	717.08
921.497	683.08
921.745	709.08
921.992	718.08
922.24	554.08
922.487	690.08
922.735	860.08
922.983	751.08
923.23	658.08
923.478	613.08
923.725	705.08
923.973	732.08
924.221	701.08
924.468	740.08
924.716	713.08
924.963	669.08
925.211	611.08
925.458	680.08
925.706	785.08
925.953	824.08
926.201	623.08
926.448	592.08
926.696	692.08
926.944	662.08
927.191	590.08
927.439	618.08
927.686	633.08
927.934	663.08
928.181	558.08
928.429	539.08
928.676	602.08
928.923	539.08
929.171	523.08
929.418	656.08
929.666	704.08
929.913	684.08
930.161	493.08
930.408	518.08
930.656	599.08
930.903	626.08
931.151	493.08
931.398	531.08
931.645	670.08
931.893	577.08
932.14	527.08
932.388	551.08
932.635	709.08
932.882	742.08
933.13	595.08
933.377	514.08
933.625	608.08
933.872	536.08
934.119	461.08
934.367	521.08
934.614	506.08
934.861	494.08
935.109	525.08
935.356	540.08
935.603	593.08
935.851	545.08
936.098	469.08
936.345	574.08
936.593	602.08
936.84	531.08
937.087	421.08
937.335	492.08
937.582	543.08
937.829	557.08
938.077	518.08
938.324	493.08
938.571	580.08
938.818	505.08
939.066	467.08
939.313	438.08
939.56	539.08
939.807	553.08
940.055	436.08
940.302	475.08
940.549	626.08
940.796	570.08
941.044	499.08
941.291	513.08
941.538	673.08
941.785	519.08
942.033	465.08
942.28	549.08
942.527	573.08
942.774	547.08
943.021	399.08
943.269	431.08
943.516	549.08
943.763	553.08
944.01	486.08
944.257	553.08
944.504	606.08
944.752	560.08
944.999	499.08
945.246	435.08
945.493	530.08
945.74	488.08
945.987	409.08
946.234	491.08
946.482	569.08
946.729	468.08
946.976	417.08
947.223	435.08
947.47	569.08
947.717	533.08
947.964	535.08
948.211	502.08
948.458	556.08
948.705	483.08
948.952	405.08
949.2	483.08
949.447	617.08
949.694	569.08
949.941	404.08
950.188	396.08
950.435	431.08
950.682	456.08
950.929	321.08
951.176	362.08
951.423	537.08
951.67	519.08
951.917	468.08
952.164	481.08
952.411	539.08
952.658	583.08
952.905	418.08
953.152	351.08
953.399	474.08
953.646	474.08
953.893	361.08
954.14	402.08
954.387	436.08
954.634	413.08
954.881	366.08
955.128	433.08
955.375	421.08
955.622	405.08
955.869	399.08
956.115	370.08
956.362	455.08
956.609	442.08
956.856	363.08
957.103	370.08
957.35	475.08
957.597	470.08
957.844	390.08
958.091	384.08
958.338	481.08
958.585	423.08
958.831	243.08
959.078	312.08
959.325	467.08
959.572	376.08
959.819	285.08
960.066	241.08
960.313	386.08
960.559	364.08
960.806	222.08
961.053	277.08
961.3	462.08
961.547	474.08
961.794	263.08
962.04	430.08
962.287	452.08
962.534	324.08
962.781	308.08
963.028	359.08
963.274	463.08
963.521	365.08
963.768	297.08
964.015	324.08
964.262	475.08
964.508	334.08
964.755	245.08
965.002	269.08
965.249	335.08
965.495	274.08
965.742	230.08
965.989	251.08
966.236	390.08
966.482	314.08
966.729	256.08
966.976	246.08
967.222	314.08
967.469	311.08
967.716	228.08
967.963	230.08
968.209	324.08
968.456	275.08
968.703	179.08
968.949	303.08
969.196	460.08
969.443	452.08
969.689	228.08
969.936	197.08
970.183	312.08
970.429	246.08
970.676	217.08
970.923	303.08
971.169	335.08
971.416	257.08
971.663	220.08
971.909	273.08
972.156	335.08
972.402	331.08
972.649	280.08
972.896	309.08
973.142	318.08
973.389	340.08
973.635	234.08
973.882	343.08
974.129	395.08
974.375	270.08
974.622	180.08
974.868	207.08
975.115	290.08
975.361	251.08
975.608	212.08
975.855	312.08
976.101	349.08
976.348	273.08
976.594	224.08
976.841	263.08
977.087	275.08
977.334	309.08
977.58	151.08
977.827	174.08
978.073	315.08
978.32	291.08
978.566	152.08
978.813	237.08
979.059	279.08
979.306	244.08
979.552	144.08
979.799	225.08
980.045	229.08
980.292	255.08
980.538	180.08
980.785	155.08
981.031	195.08
981.278	162.08
981.524	107.08
981.771	271.08
982.017	388.08
982.263	309.08
982.51	161.08
982.756	239.08
983.003	299.08
983.249	236.08
983.495	148.08
983.742	133.08
983.988	217.08
984.235	244.08
984.481	149.08
984.727	156.08
984.974	277.08
985.22	262.08
985.467	197.08
985.713	188.08
985.959	292.08
986.206	249.08
986.452	158.08
986.698	213.08
986.945	236.08
987.191	283.08
987.437	261.08
987.684	218.08
987.93	377.08
988.176	302.08
988.423	116.08
988.669	191.08
988.915	343.08
989.162	187.08
989.408	75.08
989.654	159.08
989.901	195.08
990.147	189.08
990.393	182.08
990.639	250.08
990.886	273.08
991.132	315.08
991.378	269.08
991.625	385.08
991.871	349.08
992.117	290.08
992.363	225.08
992.61	200.08
992.856	297.08
993.102	173.08
993.348	134.08
993.594	164.08
993.841	198.08
994.087	351.08
994.333	212.08
994.579	190.08
994.826	218.08
995.072	237.08
995.318	59.08
995.564	117.08
995.81	229.08
996.057	180.08
996.303	74.08
996.549	97.08
996.795	201.08
997.041	182.08
997.287	143.08
997.534	159.08
997.78	193.08
998.026	212.08
998.272	96.08
998.518	82.08
998.764	234.08
999.01	248.08
999.256	146.08
999.503	125.08
999.749	137.08
999.995	98.08
1000.241	81.08
1000.487	161.08
1000.733	199.08
1000.979	162.08
1001.225	128.08
1001.471	181.08
1001.718	235.08
1001.964	285.08
1002.21	104.08
1002.456	131.08
1002.702	275.08
1002.948	204.08
1003.194	106.08
1003.44	80.08
1003.686	169.08
1003.932	133.08
1004.178	84.08
1004.424	150.08
1004.67	287.08
1004.916	262.08
1005.162	158.08
1005.408	105.08
1005.654	237.08
1005.9	74.08
1006.146	25.08
1006.392	97.08
1006.638	181.08
1006.884	141.08
1007.13	39.08
1007.376	42.08
1007.622	242.08
1007.868	274.08
1008.114	109.08
1008.36	158.08
1008.606	212.08
1008.852	218.08
1009.098	140.08
1009.344	179.08
1009.59	164.08
1009.836	26.08
1010.082	-42.92
1010.328	76.08
1010.574	146.08
1010.82	69.08
1011.065	-19.92
1011.311	11.08
1011.557	127.08
1011.803	99.08
1012.049	28.08
1012.295	66.08
1012.541	109.08
1012.787	119.08
1013.033	-24.92
1013.278	-34.92
1013.524	127.08
1013.77	185.08
1014.016	72.08
1014.262	89.08
1014.508	185.08
1014.754	23.08
1015	4.08
1015.245	181.08
1015.491	194.08
1015.737	164.08
1015.983	21.08
1016.229	-28.92
1016.475	103.08
1016.72	232.08
1016.966	256.08
1017.212	148.08
1017.458	212.08
1017.704	114.08
1017.949	-16.92
1018.195	153.08
1018.441	260.08
1018.687	197.08
1018.933	46.08
1019.178	45.08
1019.424	200.08
1019.67	207.08
1019.916	6.08
1020.161	61.08
1020.407	108.08
1020.653	53.08
1020.899	-15.92
1021.144	73.08
1021.39	146.08
1021.636	30.08
1021.882	-71.92
1022.127	55.08
1022.373	214.08
1022.619	152.08
1022.865	60.08
1023.11	59.08
1023.356	168.08
1023.602	99.08
1023.847	47.08
1024.093	70.08
1024.339	52.08
1024.584	27.08
1024.83	-2.92
1025.076	-1.92
1025.321	144.08
1025.567	119.08
1025.813	-0.92
1026.058	92.08
1026.304	159.08
1026.55	66.08
1026.795	37.08
1027.041	51.08
1027.287	106.08
1027.532	128.08
1027.778	91.08
1028.024	69.08
1028.269	108.08
1028.515	14.08
1028.76	-42.92
1029.006	40.08
1029.252	142.08
1029.497	75.08
1029.743	45.08
1029.989	-17.92
1030.234	133.08
1030.48	192.08
1030.725	-5.92
1030.971	22.08
1031.216	160.08
1031.462	76.08
1031.708	-53.92
1031.953	-14.92
1032.199	77.08
1032.444	89.08
1032.69	18.08
1032.935	35.08
1033.181	154.08
1033.426	14.08
1033.672	-105.92
1033.918	-44.92
1034.163	41.08
1034.409	28.08
1034.654	4.08
1034.9	131.08
1035.145	131.08
1035.391	56.08
1035.636	-68.92
1035.882	20.08
1036.127	2.08
1036.373	-31.92
1036.618	-128.92
1036.864	-23.92
1037.109	119.08
1037.355	34.08
1037.6	-22.92
1037.845	7.08
1038.091	181.08
1038.336	129.08
1038.582	155.08
1038.827	243.08
1039.073	82.08
1039.318	-5.92
1039.564	-96.92
1039.809	-37.92
1040.055	143.08
1040.3	147.08
1040.545	-15.92
1040.791	-29.92
1041.036	13.08
1041.282	41.08
1041.527	112.08
1041.772	-60.92
1042.018	18.08
1042.263	36.08
1042.509	-97.92
1042.754	-63.92
1042.999	53.08
1043.245	33.08
1043.49	-129.92
1043.736	-55.92
1043.981	33.08
1044.226	56.08
1044.472	26.08
1044.717	35.08
1044.962	133.08
1045.208	43.08
1045.453	-196.92
1045.698	-111.92
1045.944	82.08
1046.189	49.08
1046.434	-54.92
1046.68	-46.92
1046.925	158.08
1047.17	7.08
1047.416	-163.92
1047.661	-63.92
1047.906	86.08
1048.152	51.08
1048.397	-40.92
1048.642	-60.92
1048.887	139.08
1049.133	152.08
1049.378	-19.92
1049.623	-46.92
1049.869	66.08
1050.114	2.08
1050.359	-59.92
1050.604	13.08
1050.85	149.08
1051.095	15.08
1051.34	-83.92
1051.585	-2.92
1051.831	183.08
1052.076	18.08
1052.321	-168.92
1052.566	-54.92
1052.812	125.08
1053.057	32.08
1053.302	-43.92
1053.547	43.08
1053.792	102.08
1054.038	90.08
1054.283	-116.92
1054.528	-36.92
1054.773	33.08
1055.018	41.08
1055.264	-44.92
1055.509	-93.92
1055.754	22.08
1055.999	-40.92
1056.244	-133.92
1056.49	-53.92
1056.735	39.08
1056.98	-14.92
1057.225	-110.92
1057.47	72.08
1057.715	-10.92
1057.96	-93.92
1058.206	-118.92
1058.451	-13.92
1058.696	115.08
1058.941	55.08
1059.186	-112.92
1059.431	-96.92
1059.676	119.08
1059.922	57.08
1060.167	120.08
1060.412	292.08
1060.657	88.08
1060.902	19.08
1061.147	-167.92
1061.392	-83.92
1061.637	55.08
1061.882	-8.92
1062.127	-155.92
1062.373	-153.92
1062.618	136.08
1062.863	153.08
1063.108	-45.92
1063.353	-115.92
1063.598	-6.92
1063.843	-25.92
1064.088	-115.92
1064.333	-114.92
1064.578	50.08
1064.823	72.08
1065.068	-156.92
1065.313	-94.92
1065.558	62.08
1065.803	49.08
1066.048	-153.92
1066.293	-138.92
1066.538	89.08
1066.783	27.08
1067.028	-165.92
1067.273	-139.92
1067.518	42.08
1067.763	-13.92
1068.008	-182.92
1068.253	-106.92
1068.498	76.08
1068.743	13.08
1068.988	-129.92
1069.233	-130.92
1069.478	85.08
1069.723	129.08
1069.968	-61.92
1070.213	-22.92
1070.458	81.08
1070.703	-16.92
1070.948	-174.92
1071.193	-68.92
1071.438	47.08
1071.683	75.08
1071.928	-36.92
1072.173	-42.92
1072.418	18.08
1072.663	-21.92
1072.908	-156.92
1073.152	-95.92
1073.397	88.08
1073.642	-35.92
1073.887	-79.92
1074.132	46.08
1074.377	25.08
1074.622	-8.92
1074.867	-130.92
1075.112	-58.92
1075.357	133.08
1075.601	-21.92
1075.846	-69.92
1076.091	14.08
1076.336	74.08
1076.581	-51.92
1076.826	-153.92
1077.071	-75.92
1077.315	178.08
1077.56	103.08
1077.805	-114.92
1078.05	-82.92
1078.295	-33.92
1078.54	-49.92
1078.785	-185.92
1079.029	-110.92
1079.274	59.08
1079.519	-66.92
1079.764	-175.92
1080.009	-42.92
1080.253	45.08
1080.498	-70.92
1080.743	-210.92
1080.988	-72.92
1081.233	161.08
1081.478	93.08
1081.722	-115.92
1081.967	9.08
1082.212	159.08
1082.457	36.08
1082.701	-97.92
1082.946	-83.92
1083.191	60.08
1083.436	-55.92
1083.681	-206.92
1083.925	-99.92
1084.17	-5.92
1084.415	30.08
1084.66	-185.92
1084.904	-78.92
1085.149	13.08
1085.394	-13.92
1085.639	-191.92
1085.883	-105.92
1086.128	134.08
1086.373	153.08
1086.617	-76.92
1086.862	-135.92
1087.107	-13.92
1087.352	-53.92
1087.596	-135.92
1087.841	-11.92
1088.086	46.08
1088.33	17.08
1088.575	-240.92
1088.82	-106.92
1089.064	62.08
1089.309	-74.92
1089.554	-191.92
1089.798	-151.92
1090.043	43.08
1090.288	-16.92
1090.533	-191.92
1090.777	-109.92
1091.022	33.08
1091.266	44.08
1091.511	-123.92
1091.756	-54.92
1092	96.08
1092.245	81.08
1092.49	-164.92
1092.734	-110.92
1092.979	82.08
1093.224	-37.92
1093.468	-178.92
1093.713	-117.92
1093.957	16.08
1094.202	-48.92
1094.447	-213.92
1094.691	-106.92
1094.936	31.08
1095.181	-1.92
1095.425	-184.92
1095.67	-157.92
1095.914	11.08
1096.159	2.08
1096.403	-150.92
1096.648	-62.92
1096.893	79.08
1097.137	-78.92
1097.382	-231.92
1097.626	-154.92
1097.871	18.08
1098.115	-37.92
1098.36	-197.92
1098.605	-106.92
1098.849	-42.92
1099.094	-120.92
1099.338	-190.92
1099.583	-109.92
1099.827	124.08
1100.072	42.08
1100.316	-152.92
1100.561	-94.92
1100.805	54.08
1101.05	13.08
1101.294	-181.92
1101.539	-158.92
1101.783	-7.92
1102.028	-14.92
1102.273	-150.92
1102.517	-85.92
1102.761	47.08
1103.006	-69.92
1103.25	-275.92
1103.495	-167.92
1103.739	38.08
1103.984	109.08
1104.228	-105.92
1104.473	-20.92
1104.717	30.08
1104.962	6.08
1105.206	-110.92
1105.451	-151.92
1105.695	4.08
1105.94	-3.92
1106.184	-146.92
1106.429	-107.92
1106.673	-3.92
1106.917	61.08
1107.162	-168.92
1107.406	-23.92
1107.651	121.08
1107.895	-93.92
1108.14	-190.92
1108.384	-89.92
1108.628	107.08
1108.873	99.08
1109.117	-137.92
1109.362	-119.92
1109.606	-32.92
1109.85	-43.92
1110.095	-161.92
1110.339	-93.92
1110.584	97.08
1110.828	35.08
1111.072	-96.92
1111.317	-137.92
1111.561	-18.92
1111.806	-37.92
1112.05	-177.92
1112.294	-85.92
1112.539	25.08
1112.783	-8.92
1113.027	-136.92
1113.272	-128.92
1113.516	-42.92
1113.76	-58.92
1114.005	-163.92
1114.249	-92.92
1114.493	59.08
1114.738	75.08
1114.982	-68.92
1115.226	-99.92
1115.471	-4.92
1115.715	-33.92
1115.959	-205.92
1116.204	-177.92
1116.448	-3.92
1116.692	-105.92
1116.937	-194.92
1117.181	-44.92
1117.425	-30.92
1117.67	-91.92
1117.914	-165.92
1118.158	-107.92
1118.402	139.08
1118.647	59.08
1118.891	-91.92
1119.135	-35.92
1119.38	105.08
1119.624	15.08
1119.868	-153.92
1120.112	-160.92
1120.357	-67.92
1120.601	-122.92
1120.845	-218.92
1121.089	-153.92
1121.334	29.08
